0.000	-0.345
0.003	-0.345
0.006	-0.345
0.009	-0.345
0.012	-0.345
0.015	-0.345
0.018	-0.345
0.021	-0.345
0.024	-0.330
0.027	-0.320
0.030	-0.320
0.033	-0.325
0.036	-0.330
0.039	-0.325
0.042	-0.315
0.045	-0.305
0.048	-0.300
0.051	-0.315
0.054	-0.320
0.057	-0.315
0.060	-0.300
0.063	-0.290
0.066	-0.290
0.069	-0.295
0.072	-0.290
0.075	-0.295
0.078	-0.285
0.081	-0.255
0.084	-0.230
0.087	-0.200
0.090	-0.195
0.093	-0.160
0.096	-0.160
0.099	-0.165
0.102	-0.200
0.105	-0.200
0.108	-0.210
0.111	-0.210
0.114	-0.205
0.117	-0.210
0.120	-0.210
0.123	-0.220
0.126	-0.250
0.129	-0.250
0.132	-0.250
0.135	-0.260
0.138	-0.265
0.141	-0.275
0.144	-0.305
0.147	-0.320
0.150	-0.330
0.153	-0.320
0.156	-0.320
0.159	-0.315
0.162	-0.340
0.165	-0.350
0.168	-0.335
0.171	-0.320
0.174	-0.310
0.177	-0.335
0.180	-0.345
0.183	-0.350
0.186	-0.350
0.189	-0.355
0.192	-0.350
0.195	-0.350
0.198	-0.370
0.201	-0.360
0.204	-0.345
0.207	-0.325
0.210	-0.325
0.213	-0.335
0.216	-0.370
0.219	-0.400
0.222	-0.400
0.225	-0.395
0.228	-0.350
0.231	-0.210
0.234	-0.010
0.237	0.245
0.240	0.530
0.243	0.850
0.246	1.085
0.249	1.065
0.252	0.815
0.255	0.480
0.258	0.210
0.261	-0.010
0.264	-0.145
0.267	-0.185
0.270	-0.240
0.273	-0.285
0.276	-0.285
0.279	-0.285
0.282	-0.290
0.285	-0.300
0.288	-0.335
0.291	-0.360
0.294	-0.360
0.297	-0.385
0.300	-0.395
0.303	-0.415
0.306	-0.430
0.309	-0.435
0.312	-0.405
0.315	-0.410
0.318	-0.405
0.321	-0.415
0.324	-0.440
0.327	-0.430
0.330	-0.415
0.333	-0.420
0.336	-0.415
0.339	-0.420
0.342	-0.430
0.345	-0.440
0.348	-0.425
0.351	-0.415
0.354	-0.425
0.357	-0.430
0.360	-0.425
0.363	-0.415
0.366	-0.420
0.369	-0.415
0.372	-0.420
0.375	-0.420
0.378	-0.435
0.381	-0.415
0.384	-0.415
0.387	-0.400
0.390	-0.395
0.393	-0.410
0.396	-0.425
0.399	-0.415
0.402	-0.405
0.405	-0.395
0.408	-0.400
0.411	-0.410
0.414	-0.420
0.417	-0.410
0.420	-0.395
0.423	-0.380
0.426	-0.390
0.429	-0.400
0.432	-0.415
0.435	-0.420
0.438	-0.385
0.441	-0.375
0.444	-0.380
0.447	-0.375
0.450	-0.365
0.453	-0.350
0.456	-0.350
0.459	-0.350
0.462	-0.340
0.465	-0.350
0.468	-0.350
0.471	-0.325
0.474	-0.320
0.477	-0.310
0.480	-0.310
0.483	-0.310
0.486	-0.305
0.489	-0.285
0.492	-0.270
0.495	-0.265
0.498	-0.265
0.501	-0.255
0.504	-0.240
0.507	-0.220
0.510	-0.210
0.513	-0.205
0.516	-0.190
0.519	-0.175
0.522	-0.175
0.525	-0.165
0.528	-0.155
0.531	-0.145
0.534	-0.130
0.537	-0.125
0.540	-0.135
0.543	-0.125
0.546	-0.110
0.549	-0.090
0.552	-0.105
0.555	-0.120
0.558	-0.120
0.561	-0.120
0.564	-0.110
0.567	-0.110
0.570	-0.130
0.573	-0.160
0.576	-0.165
0.579	-0.170
0.582	-0.170
0.585	-0.180
0.588	-0.205
0.591	-0.225
0.594	-0.235
0.597	-0.245
0.600	-0.250
0.603	-0.255
0.606	-0.265
0.609	-0.275
0.612	-0.285
0.615	-0.295
0.618	-0.290
0.621	-0.305
0.624	-0.315
0.627	-0.330
0.630	-0.340
0.633	-0.325
0.636	-0.325
0.639	-0.315
0.642	-0.310
0.645	-0.335
0.648	-0.355
0.651	-0.355
0.654	-0.365
0.657	-0.345
0.660	-0.345
0.663	-0.330
0.666	-0.350
0.669	-0.355
0.672	-0.340
0.675	-0.345
0.678	-0.345
0.681	-0.350
0.684	-0.350
0.687	-0.350
0.690	-0.345
0.693	-0.330
0.696	-0.340
0.699	-0.350
0.702	-0.360
0.705	-0.350
0.708	-0.340
0.711	-0.330
0.714	-0.320
0.717	-0.325
0.720	-0.320
0.723	-0.325
0.726	-0.320
0.729	-0.315
0.732	-0.325
0.735	-0.345
0.738	-0.350
0.741	-0.330
0.744	-0.320
0.747	-0.305
0.750	-0.305
0.753	-0.300
0.756	-0.320
0.759	-0.325
0.762	-0.325
0.765	-0.305
0.768	-0.290
0.771	-0.305
0.774	-0.320
0.777	-0.325
0.780	-0.325
0.783	-0.310
0.786	-0.310
0.789	-0.310
0.792	-0.325
0.795	-0.310
0.798	-0.310
0.801	-0.315
0.804	-0.310
0.807	-0.320
0.810	-0.330
0.813	-0.320
0.816	-0.315
0.819	-0.315
0.822	-0.315
0.825	-0.340
0.828	-0.340
0.831	-0.325
0.834	-0.310
0.837	-0.305
0.840	-0.320
0.843	-0.320
0.846	-0.330
0.849	-0.330
0.852	-0.335
0.855	-0.320
0.858	-0.320
0.861	-0.330
0.864	-0.340
0.867	-0.345
0.870	-0.335
0.873	-0.320
0.876	-0.330
0.879	-0.325
0.882	-0.320
0.885	-0.325
0.888	-0.325
0.891	-0.315
0.894	-0.315
0.897	-0.320
0.900	-0.335
0.903	-0.335
0.906	-0.325
0.909	-0.320
0.912	-0.330
0.915	-0.340
0.918	-0.350
0.921	-0.330
0.924	-0.335
0.927	-0.325
0.930	-0.310
0.933	-0.340
0.936	-0.355
0.939	-0.335
0.942	-0.320
0.945	-0.305
0.948	-0.310
0.951	-0.315
0.954	-0.320
0.957	-0.350
0.960	-0.315
0.963	-0.320
0.966	-0.320
0.969	-0.320
0.972	-0.320
0.975	-0.320
0.978	-0.310
0.981	-0.310
0.984	-0.315
0.987	-0.315
0.990	-0.310
0.993	-0.295
0.996	-0.280
0.999	-0.280
1.002	-0.290
1.005	-0.295
1.008	-0.295
1.011	-0.285
1.014	-0.275
1.017	-0.240
1.020	-0.220
1.023	-0.215
1.026	-0.215
1.029	-0.175
1.032	-0.145
1.035	-0.140
1.038	-0.150
1.041	-0.185
1.044	-0.210
1.047	-0.215
1.050	-0.215
1.053	-0.205
1.056	-0.210
1.059	-0.215
1.062	-0.235
1.065	-0.255
1.068	-0.250
1.071	-0.250
1.074	-0.240
1.077	-0.255
1.080	-0.270
1.083	-0.275
1.086	-0.300
1.089	-0.300
1.092	-0.325
1.095	-0.320
1.098	-0.325
1.101	-0.315
1.104	-0.305
1.107	-0.305
1.110	-0.315
1.113	-0.320
1.116	-0.355
1.119	-0.350
1.122	-0.350
1.125	-0.335
1.128	-0.320
1.131	-0.325
1.134	-0.340
1.137	-0.350
1.140	-0.325
1.143	-0.305
1.146	-0.310
1.149	-0.325
1.152	-0.360
1.155	-0.355
1.158	-0.360
1.161	-0.355
1.164	-0.360
1.167	-0.370
1.170	-0.270
1.173	-0.085
1.176	0.135
1.179	0.385
1.182	0.690
1.185	0.945
1.188	1.020
1.191	0.890
1.194	0.605
1.197	0.345
1.200	0.115
1.203	-0.055
1.206	-0.140
1.209	-0.185
1.212	-0.235
1.215	-0.240
1.218	-0.250
1.221	-0.270
1.224	-0.300
1.227	-0.315
1.230	-0.340
1.233	-0.370
1.236	-0.380
1.239	-0.405
1.242	-0.395
1.245	-0.385
1.248	-0.375
1.251	-0.365
1.254	-0.375
1.257	-0.395
1.260	-0.415
1.263	-0.420
1.266	-0.405
1.269	-0.390
1.272	-0.410
1.275	-0.400
1.278	-0.410
1.281	-0.390
1.284	-0.395
1.287	-0.390
1.290	-0.395
1.293	-0.415
1.296	-0.425
1.299	-0.420
1.302	-0.395
1.305	-0.390
1.308	-0.400
1.311	-0.405
1.314	-0.405
1.317	-0.395
1.320	-0.385
1.323	-0.385
1.326	-0.385
1.329	-0.400
1.332	-0.405
1.335	-0.405
1.338	-0.400
1.341	-0.390
1.344	-0.385
1.347	-0.400
1.350	-0.415
1.353	-0.405
1.356	-0.390
1.359	-0.375
1.362	-0.370
1.365	-0.385
1.368	-0.400
1.371	-0.385
1.374	-0.370
1.377	-0.360
1.380	-0.365
1.383	-0.365
1.386	-0.375
1.389	-0.380
1.392	-0.355
1.395	-0.340
1.398	-0.340
1.401	-0.335
1.404	-0.345
1.407	-0.335
1.410	-0.320
1.413	-0.315
1.416	-0.330
1.419	-0.315
1.422	-0.330
1.425	-0.315
1.428	-0.300
1.431	-0.275
1.434	-0.255
1.437	-0.240
1.440	-0.255
1.443	-0.245
1.446	-0.235
1.449	-0.220
1.452	-0.210
1.455	-0.210
1.458	-0.215
1.461	-0.205
1.464	-0.185
1.467	-0.170
1.470	-0.150
1.473	-0.140
1.476	-0.145
1.479	-0.140
1.482	-0.115
1.485	-0.120
1.488	-0.125
1.491	-0.115
1.494	-0.130
1.497	-0.120
1.500	-0.120
1.503	-0.125
1.506	-0.115
1.509	-0.130
1.512	-0.125
1.515	-0.125
1.518	-0.130
1.521	-0.140
1.524	-0.160
1.527	-0.170
1.530	-0.190
1.533	-0.195
1.536	-0.190
1.539	-0.180
1.542	-0.195
1.545	-0.225
1.548	-0.235
1.551	-0.240
1.554	-0.235
1.557	-0.235
1.560	-0.240
1.563	-0.270
1.566	-0.275
1.569	-0.280
1.572	-0.275
1.575	-0.275
1.578	-0.280
1.581	-0.300
1.584	-0.310
1.587	-0.310
1.590	-0.305
1.593	-0.295
1.596	-0.295
1.599	-0.310
1.602	-0.320
1.605	-0.305
1.608	-0.300
1.611	-0.295
1.614	-0.315
1.617	-0.315
1.620	-0.320
1.623	-0.305
1.626	-0.305
1.629	-0.295
1.632	-0.310
1.635	-0.305
1.638	-0.300
1.641	-0.305
1.644	-0.300
1.647	-0.310
1.650	-0.295
1.653	-0.295
1.656	-0.295
1.659	-0.290
1.662	-0.285
1.665	-0.280
1.668	-0.275
1.671	-0.275
1.674	-0.285
1.677	-0.290
1.680	-0.275
1.683	-0.280
1.686	-0.270
1.689	-0.285
1.692	-0.295
1.695	-0.295
1.698	-0.275
1.701	-0.270
1.704	-0.265
1.707	-0.265
1.710	-0.270
1.713	-0.265
1.716	-0.270
1.719	-0.260
1.722	-0.260
1.725	-0.265
1.728	-0.285
1.731	-0.285
1.734	-0.275
1.737	-0.260
1.740	-0.265
1.743	-0.280
1.746	-0.285
1.749	-0.280
1.752	-0.265
1.755	-0.265
1.758	-0.265
1.761	-0.265
1.764	-0.265
1.767	-0.270
1.770	-0.270
1.773	-0.255
1.776	-0.265
1.779	-0.280
1.782	-0.290
1.785	-0.280
1.788	-0.270
1.791	-0.270
1.794	-0.265
1.797	-0.265
1.800	-0.295
1.803	-0.280
1.806	-0.285
1.809	-0.265
1.812	-0.265
1.815	-0.280
1.818	-0.285
1.821	-0.285
1.824	-0.275
1.827	-0.275
1.830	-0.275
1.833	-0.275
1.836	-0.285
1.839	-0.285
1.842	-0.270
1.845	-0.265
1.848	-0.270
1.851	-0.275
1.854	-0.285
1.857	-0.280
1.860	-0.265
1.863	-0.265
1.866	-0.275
1.869	-0.270
1.872	-0.275
1.875	-0.275
1.878	-0.275
1.881	-0.260
1.884	-0.265
1.887	-0.275
1.890	-0.285
1.893	-0.280
1.896	-0.280
1.899	-0.260
1.902	-0.270
1.905	-0.275
1.908	-0.280
1.911	-0.280
1.914	-0.270
1.917	-0.255
1.920	-0.225
1.923	-0.235
1.926	-0.245
1.929	-0.240
1.932	-0.220
1.935	-0.210
1.938	-0.215
1.941	-0.220
1.944	-0.225
1.947	-0.235
1.950	-0.230
1.953	-0.220
1.956	-0.190
1.959	-0.180
1.962	-0.185
1.965	-0.150
1.968	-0.115
1.971	-0.105
1.974	-0.100
1.977	-0.125
1.980	-0.150
1.983	-0.155
1.986	-0.150
1.989	-0.160
1.992	-0.175
1.995	-0.185
1.998	-0.200
2.001	-0.190
2.004	-0.190
2.007	-0.180
2.010	-0.195
2.013	-0.210
2.016	-0.225
2.019	-0.220
2.022	-0.225
2.025	-0.240
2.028	-0.240
2.031	-0.260
2.034	-0.290
2.037	-0.285
2.040	-0.280
2.043	-0.265
2.046	-0.275
2.049	-0.295
2.052	-0.305
2.055	-0.295
2.058	-0.290
2.061	-0.275
2.064	-0.285
2.067	-0.295
2.070	-0.305
2.073	-0.320
2.076	-0.305
2.079	-0.295
2.082	-0.300
2.085	-0.305
2.088	-0.305
2.091	-0.295
2.094	-0.285
2.097	-0.290
2.100	-0.310
2.103	-0.340
2.106	-0.370
2.109	-0.365
2.112	-0.290
2.115	-0.150
2.118	0.065
2.121	0.295
2.124	0.540
2.127	0.840
2.130	1.085
2.133	1.165
2.136	1.040
2.139	0.765
2.142	0.480
2.145	0.220
2.148	0.015
2.151	-0.080
2.154	-0.115
2.157	-0.185
2.160	-0.235
2.163	-0.245
2.166	-0.235
2.169	-0.240
2.172	-0.260
2.175	-0.300
2.178	-0.345
2.181	-0.350
2.184	-0.365
2.187	-0.350
2.190	-0.365
2.193	-0.375
2.196	-0.390
2.199	-0.375
2.202	-0.370
2.205	-0.370
2.208	-0.375
2.211	-0.385
2.214	-0.390
2.217	-0.395
2.220	-0.400
2.223	-0.390
2.226	-0.390
2.229	-0.400
2.232	-0.400
2.235	-0.390
2.238	-0.385
2.241	-0.385
2.244	-0.385
2.247	-0.395
2.250	-0.410
2.253	-0.400
2.256	-0.390
2.259	-0.385
2.262	-0.395
2.265	-0.395
2.268	-0.405
2.271	-0.405
2.274	-0.390
2.277	-0.380
2.280	-0.380
2.283	-0.395
2.286	-0.400
2.289	-0.410
2.292	-0.390
2.295	-0.385
2.298	-0.375
2.301	-0.385
2.304	-0.395
2.307	-0.395
2.310	-0.390
2.313	-0.380
2.316	-0.385
2.319	-0.390
2.322	-0.395
2.325	-0.385
2.328	-0.375
2.331	-0.365
2.334	-0.365
2.337	-0.370
2.340	-0.370
2.343	-0.365
2.346	-0.350
2.349	-0.340
2.352	-0.345
2.355	-0.345
2.358	-0.360
2.361	-0.350
2.364	-0.320
2.367	-0.305
2.370	-0.290
2.373	-0.300
2.376	-0.290
2.379	-0.295
2.382	-0.280
2.385	-0.255
2.388	-0.235
2.391	-0.245
2.394	-0.245
2.397	-0.235
2.400	-0.225
2.403	-0.205
2.406	-0.180
2.409	-0.180
2.412	-0.190
2.415	-0.170
2.418	-0.155
2.421	-0.145
2.424	-0.140
2.427	-0.150
2.430	-0.140
2.433	-0.145
2.436	-0.135
2.439	-0.110
2.442	-0.130
2.445	-0.125
2.448	-0.130
2.451	-0.135
2.454	-0.120
2.457	-0.120
2.460	-0.120
2.463	-0.145
2.466	-0.165
2.469	-0.170
2.472	-0.175
2.475	-0.175
2.478	-0.190
2.481	-0.215
2.484	-0.225
2.487	-0.235
2.490	-0.250
2.493	-0.245
2.496	-0.265
2.499	-0.270
2.502	-0.295
2.505	-0.315
2.508	-0.305
2.511	-0.295
2.514	-0.300
2.517	-0.315
2.520	-0.325
2.523	-0.325
2.526	-0.325
2.529	-0.325
2.532	-0.330
2.535	-0.340
2.538	-0.355
2.541	-0.360
2.544	-0.350
2.547	-0.335
2.550	-0.355
2.553	-0.360
2.556	-0.365
2.559	-0.365
2.562	-0.345
2.565	-0.350
2.568	-0.360
2.571	-0.360
2.574	-0.355
2.577	-0.350
2.580	-0.345
2.583	-0.335
2.586	-0.345
2.589	-0.365
2.592	-0.375
2.595	-0.365
2.598	-0.350
2.601	-0.355
2.604	-0.345
2.607	-0.350
2.610	-0.350
2.613	-0.355
2.616	-0.345
2.619	-0.330
2.622	-0.325
2.625	-0.330
2.628	-0.350
2.631	-0.350
2.634	-0.350
2.637	-0.340
2.640	-0.340
2.643	-0.350
2.646	-0.355
2.649	-0.345
2.652	-0.335
2.655	-0.330
2.658	-0.340
2.661	-0.340
2.664	-0.350
2.667	-0.340
2.670	-0.325
2.673	-0.325
2.676	-0.320
2.679	-0.340
2.682	-0.355
2.685	-0.360
2.688	-0.355
2.691	-0.345
2.694	-0.330
2.697	-0.335
2.700	-0.345
2.703	-0.345
2.706	-0.350
2.709	-0.330
2.712	-0.330
2.715	-0.345
2.718	-0.345
2.721	-0.350
2.724	-0.340
2.727	-0.345
2.730	-0.345
2.733	-0.345
2.736	-0.350
2.739	-0.345
2.742	-0.345
2.745	-0.335
2.748	-0.355
2.751	-0.360
2.754	-0.365
2.757	-0.365
2.760	-0.360
2.763	-0.350
2.766	-0.355
2.769	-0.355
2.772	-0.355
2.775	-0.350
2.778	-0.345
2.781	-0.340
2.784	-0.355
2.787	-0.370
2.790	-0.380
2.793	-0.380
2.796	-0.375
2.799	-0.365
2.802	-0.360
2.805	-0.355
2.808	-0.355
2.811	-0.365
2.814	-0.365
2.817	-0.345
2.820	-0.340
2.823	-0.360
2.826	-0.385
2.829	-0.380
2.832	-0.360
2.835	-0.345
2.838	-0.345
2.841	-0.365
2.844	-0.375
2.847	-0.385
2.850	-0.355
2.853	-0.350
2.856	-0.350
2.859	-0.360
2.862	-0.370
2.865	-0.370
2.868	-0.355
2.871	-0.350
2.874	-0.350
2.877	-0.365
2.880	-0.365
2.883	-0.360
2.886	-0.335
2.889	-0.325
2.892	-0.330
2.895	-0.325
2.898	-0.330
2.901	-0.315
2.904	-0.305
2.907	-0.310
2.910	-0.320
2.913	-0.325
2.916	-0.320
2.919	-0.310
2.922	-0.280
2.925	-0.265
2.928	-0.245
2.931	-0.240
2.934	-0.230
2.937	-0.230
2.940	-0.225
2.943	-0.220
2.946	-0.235
2.949	-0.250
2.952	-0.265
2.955	-0.275
2.958	-0.255
2.961	-0.260
2.964	-0.255
2.967	-0.270
2.970	-0.300
2.973	-0.315
2.976	-0.315
2.979	-0.320
2.982	-0.325
2.985	-0.335
2.988	-0.355
2.991	-0.365
2.994	-0.365
2.997	-0.380
3.000	-0.390
3.003	-0.400
3.006	-0.395
3.009	-0.380
3.012	-0.375
3.015	-0.385
3.018	-0.415
3.021	-0.420
3.024	-0.420
3.027	-0.425
3.030	-0.415
3.033	-0.405
3.036	-0.410
3.039	-0.425
3.042	-0.430
3.045	-0.410
3.048	-0.395
3.051	-0.400
3.054	-0.420
3.057	-0.425
3.060	-0.435
3.063	-0.450
3.066	-0.455
3.069	-0.465
3.072	-0.450
3.075	-0.410
3.078	-0.265
3.081	-0.025
3.084	0.205
3.087	0.460
3.090	0.715
3.093	0.975
3.096	1.095
3.099	1.010
3.102	0.755
3.105	0.460
3.108	0.190
3.111	-0.050
3.114	-0.185
3.117	-0.225
3.120	-0.250
3.123	-0.280
3.126	-0.325
3.129	-0.350
3.132	-0.355
3.135	-0.350
3.138	-0.365
3.141	-0.385
3.144	-0.425
3.147	-0.445
3.150	-0.445
3.153	-0.455
3.156	-0.450
3.159	-0.455
3.162	-0.480
3.165	-0.495
3.168	-0.485
3.171	-0.475
3.174	-0.470
3.177	-0.470
3.180	-0.480
3.183	-0.505
3.186	-0.500
3.189	-0.490
3.192	-0.480
3.195	-0.495
3.198	-0.500
3.201	-0.490
3.204	-0.490
3.207	-0.475
3.210	-0.465
3.213	-0.475
3.216	-0.475
3.219	-0.485
3.222	-0.490
3.225	-0.480
3.228	-0.475
3.231	-0.465
3.234	-0.475
3.237	-0.490
3.240	-0.475
3.243	-0.465
3.246	-0.475
3.249	-0.485
3.252	-0.485
3.255	-0.485
3.258	-0.475
3.261	-0.470
3.264	-0.465
3.267	-0.475
3.270	-0.475
3.273	-0.480
3.276	-0.470
3.279	-0.475
3.282	-0.460
3.285	-0.460
3.288	-0.465
3.291	-0.485
3.294	-0.475
3.297	-0.470
3.300	-0.455
3.303	-0.465
3.306	-0.455
3.309	-0.460
3.312	-0.460
3.315	-0.455
3.318	-0.435
3.321	-0.435
3.324	-0.430
3.327	-0.435
3.330	-0.435
3.333	-0.415
3.336	-0.410
3.339	-0.400
3.342	-0.395
3.345	-0.410
3.348	-0.400
3.351	-0.380
3.354	-0.355
3.357	-0.355
3.360	-0.375
3.363	-0.355
3.366	-0.345
3.369	-0.320
3.372	-0.305
3.375	-0.290
3.378	-0.290
3.381	-0.280
3.384	-0.275
3.387	-0.255
3.390	-0.235
3.393	-0.235
3.396	-0.235
3.399	-0.245
3.402	-0.240
3.405	-0.210
3.408	-0.195
3.411	-0.180
3.414	-0.190
3.417	-0.195
3.420	-0.190
3.423	-0.185
3.426	-0.175
3.429	-0.170
3.432	-0.180
3.435	-0.185
3.438	-0.175
3.441	-0.190
3.444	-0.190
3.447	-0.195
3.450	-0.210
3.453	-0.235
3.456	-0.260
3.459	-0.255
3.462	-0.255
3.465	-0.270
3.468	-0.295
3.471	-0.320
3.474	-0.335
3.477	-0.345
3.480	-0.325
3.483	-0.330
3.486	-0.355
3.489	-0.370
3.492	-0.370
3.495	-0.375
3.498	-0.365
3.501	-0.375
3.504	-0.380
3.507	-0.390
3.510	-0.410
3.513	-0.405
3.516	-0.405
3.519	-0.395
3.522	-0.410
3.525	-0.420
3.528	-0.420
3.531	-0.410
3.534	-0.390
3.537	-0.395
3.540	-0.405
3.543	-0.415
3.546	-0.420
3.549	-0.415
3.552	-0.410
3.555	-0.415
3.558	-0.420
3.561	-0.425
3.564	-0.425
3.567	-0.425
3.570	-0.400
3.573	-0.405
3.576	-0.415
3.579	-0.425
3.582	-0.420
3.585	-0.420
3.588	-0.420
3.591	-0.430
3.594	-0.430
3.597	-0.430
3.600	-0.430
3.603	-0.405
3.606	-0.405
3.609	-0.405
3.612	-0.415
3.615	-0.430
3.618	-0.420
3.621	-0.415
3.624	-0.410
3.627	-0.400
3.630	-0.415
3.633	-0.415
3.636	-0.415
3.639	-0.410
3.642	-0.390
3.645	-0.390
3.648	-0.400
3.651	-0.410
3.654	-0.415
3.657	-0.395
3.660	-0.385
3.663	-0.390
3.666	-0.405
3.669	-0.395
3.672	-0.400
3.675	-0.385
3.678	-0.380
3.681	-0.390
3.684	-0.400
3.687	-0.415
3.690	-0.410
3.693	-0.400
3.696	-0.400
3.699	-0.410
3.702	-0.420
3.705	-0.405
3.708	-0.410
3.711	-0.400
3.714	-0.400
3.717	-0.395
3.720	-0.400
3.723	-0.415
3.726	-0.420
3.729	-0.415
3.732	-0.410
3.735	-0.420
3.738	-0.420
3.741	-0.420
3.744	-0.430
3.747	-0.415
3.750	-0.395
3.753	-0.400
3.756	-0.405
3.759	-0.420
3.762	-0.435
3.765	-0.425
3.768	-0.420
3.771	-0.415
3.774	-0.405
3.777	-0.410
3.780	-0.430
3.783	-0.430
3.786	-0.395
3.789	-0.410
3.792	-0.420
3.795	-0.425
3.798	-0.415
3.801	-0.405
3.804	-0.410
3.807	-0.405
3.810	-0.415
3.813	-0.415
3.816	-0.415
3.819	-0.405
3.822	-0.385
3.825	-0.410
3.828	-0.420
3.831	-0.430
3.834	-0.420
3.837	-0.410
3.840	-0.400
3.843	-0.405
3.846	-0.420
3.849	-0.420
3.852	-0.430
3.855	-0.415
3.858	-0.400
3.861	-0.410
3.864	-0.405
3.867	-0.405
3.870	-0.415
3.873	-0.400
3.876	-0.410
3.879	-0.410
3.882	-0.420
3.885	-0.410
3.888	-0.405
3.891	-0.390
3.894	-0.375
3.897	-0.375
3.900	-0.375
3.903	-0.375
3.906	-0.375
3.909	-0.365
3.912	-0.345
3.915	-0.345
3.918	-0.350
3.921	-0.375
3.924	-0.370
3.927	-0.335
3.930	-0.290
3.933	-0.270
3.936	-0.250
3.939	-0.235
3.942	-0.225
3.945	-0.225
3.948	-0.225
3.951	-0.245
3.954	-0.245
3.957	-0.260
3.960	-0.270
3.963	-0.275
3.966	-0.270
3.969	-0.275
3.972	-0.290
3.975	-0.310
3.978	-0.315
3.981	-0.320
3.984	-0.320
3.987	-0.330
3.990	-0.355
3.993	-0.380
3.996	-0.390
3.999	-0.395
4.002	-0.385
4.005	-0.400
4.008	-0.400
4.011	-0.420
4.014	-0.435
4.017	-0.425
4.020	-0.410
4.023	-0.420
4.026	-0.420
4.029	-0.430
4.032	-0.435
4.035	-0.430
4.038	-0.415
4.041	-0.425
4.044	-0.435
4.047	-0.440
4.050	-0.425
4.053	-0.430
4.056	-0.420
4.059	-0.410
4.062	-0.420
4.065	-0.430
4.068	-0.455
4.071	-0.460
4.074	-0.470
4.077	-0.490
4.080	-0.475
4.083	-0.415
4.086	-0.270
4.089	-0.045
4.092	0.180
4.095	0.430
4.098	0.720
4.101	0.980
4.104	1.100
4.107	1.040
4.110	0.790
4.113	0.480
4.116	0.175
4.119	-0.075
4.122	-0.230
4.125	-0.280
4.128	-0.305
4.131	-0.355
4.134	-0.380
4.137	-0.395
4.140	-0.395
4.143	-0.395
4.146	-0.400
4.149	-0.430
4.152	-0.455
4.155	-0.470
4.158	-0.485
4.161	-0.485
4.164	-0.485
4.167	-0.505
4.170	-0.510
4.173	-0.505
4.176	-0.515
4.179	-0.500
4.182	-0.490
4.185	-0.490
4.188	-0.495
4.191	-0.510
4.194	-0.525
4.197	-0.510
4.200	-0.490
4.203	-0.490
4.206	-0.485
4.209	-0.490
4.212	-0.505
4.215	-0.500
4.218	-0.485
4.221	-0.490
4.224	-0.490
4.227	-0.495
4.230	-0.485
4.233	-0.485
4.236	-0.485
4.239	-0.485
4.242	-0.490
4.245	-0.490
4.248	-0.485
4.251	-0.470
4.254	-0.470
4.257	-0.480
4.260	-0.475
4.263	-0.490
4.266	-0.490
4.269	-0.470
4.272	-0.455
4.275	-0.450
4.278	-0.455
4.281	-0.460
4.284	-0.470
4.287	-0.460
4.290	-0.455
4.293	-0.445
4.296	-0.465
4.299	-0.470
4.302	-0.460
4.305	-0.450
4.308	-0.430
4.311	-0.435
4.314	-0.425
4.317	-0.430
4.320	-0.435
4.323	-0.430
4.326	-0.420
4.329	-0.420
4.332	-0.420
4.335	-0.425
4.338	-0.410
4.341	-0.390
4.344	-0.375
4.347	-0.380
4.350	-0.370
4.353	-0.370
4.356	-0.380
4.359	-0.370
4.362	-0.355
4.365	-0.345
4.368	-0.355
4.371	-0.345
4.374	-0.340
4.377	-0.315
4.380	-0.300
4.383	-0.295
4.386	-0.280
4.389	-0.280
4.392	-0.270
4.395	-0.250
4.398	-0.245
4.401	-0.245
4.404	-0.235
4.407	-0.230
4.410	-0.235
4.413	-0.225
4.416	-0.205
4.419	-0.195
4.422	-0.195
4.425	-0.195
4.428	-0.200
4.431	-0.180
4.434	-0.170
4.437	-0.170
4.440	-0.170
4.443	-0.185
4.446	-0.185
4.449	-0.175
4.452	-0.165
4.455	-0.165
4.458	-0.180
4.461	-0.180
4.464	-0.185
4.467	-0.195
4.470	-0.205
4.473	-0.230
4.476	-0.240
4.479	-0.245
4.482	-0.265
4.485	-0.270
4.488	-0.270
4.491	-0.285
4.494	-0.305
4.497	-0.315
4.500	-0.315
4.503	-0.315
4.506	-0.310
4.509	-0.315
4.512	-0.320
4.515	-0.335
4.518	-0.340
4.521	-0.340
4.524	-0.335
4.527	-0.340
4.530	-0.345
4.533	-0.360
4.536	-0.365
4.539	-0.355
4.542	-0.350
4.545	-0.345
4.548	-0.360
4.551	-0.375
4.554	-0.370
4.557	-0.370
4.560	-0.365
4.563	-0.360
4.566	-0.365
4.569	-0.375
4.572	-0.365
4.575	-0.350
4.578	-0.330
4.581	-0.345
4.584	-0.350
4.587	-0.350
4.590	-0.350
4.593	-0.345
4.596	-0.330
4.599	-0.335
4.602	-0.340
4.605	-0.355
4.608	-0.365
4.611	-0.340
4.614	-0.330
4.617	-0.335
4.620	-0.340
4.623	-0.345
4.626	-0.345
4.629	-0.340
4.632	-0.320
4.635	-0.330
4.638	-0.340
4.641	-0.330
4.644	-0.335
4.647	-0.335
4.650	-0.330
4.653	-0.335
4.656	-0.335
4.659	-0.335
4.662	-0.335
4.665	-0.325
4.668	-0.310
4.671	-0.315
4.674	-0.325
4.677	-0.320
4.680	-0.335
4.683	-0.320
4.686	-0.310
4.689	-0.315
4.692	-0.320
4.695	-0.320
4.698	-0.320
4.701	-0.320
4.704	-0.310
4.707	-0.320
4.710	-0.320
4.713	-0.330
4.716	-0.340
4.719	-0.320
4.722	-0.310
4.725	-0.310
4.728	-0.325
4.731	-0.335
4.734	-0.335
4.737	-0.315
4.740	-0.315
4.743	-0.330
4.746	-0.330
4.749	-0.330
4.752	-0.330
4.755	-0.330
4.758	-0.310
4.761	-0.320
4.764	-0.330
4.767	-0.330
4.770	-0.330
4.773	-0.325
4.776	-0.315
4.779	-0.320
4.782	-0.325
4.785	-0.330
4.788	-0.335
4.791	-0.325
4.794	-0.305
4.797	-0.315
4.800	-0.320
4.803	-0.330
4.806	-0.330
4.809	-0.315
4.812	-0.315
4.815	-0.310
4.818	-0.325
4.821	-0.325
4.824	-0.325
4.827	-0.315
4.830	-0.310
4.833	-0.315
4.836	-0.320
4.839	-0.325
4.842	-0.320
4.845	-0.315
4.848	-0.315
4.851	-0.310
4.854	-0.325
4.857	-0.330
4.860	-0.325
4.863	-0.325
4.866	-0.310
4.869	-0.300
4.872	-0.320
4.875	-0.320
4.878	-0.330
4.881	-0.325
4.884	-0.310
4.887	-0.320
4.890	-0.315
4.893	-0.315
4.896	-0.320
4.899	-0.325
4.902	-0.310
4.905	-0.305
4.908	-0.310
4.911	-0.320
4.914	-0.330
4.917	-0.315
4.920	-0.295
4.923	-0.290
4.926	-0.290
4.929	-0.310
4.932	-0.300
4.935	-0.285
4.938	-0.280
4.941	-0.280
4.944	-0.275
4.947	-0.285
4.950	-0.275
4.953	-0.250
4.956	-0.220
4.959	-0.200
4.962	-0.200
4.965	-0.180
4.968	-0.155
4.971	-0.130
4.974	-0.125
4.977	-0.130
4.980	-0.165
4.983	-0.180
4.986	-0.190
4.989	-0.195
4.992	-0.190
4.995	-0.200
4.998	-0.215
5.001	-0.220
5.004	-0.225
5.007	-0.230
5.010	-0.215
5.013	-0.235
5.016	-0.255
5.019	-0.260
5.022	-0.285
5.025	-0.295
5.028	-0.310
5.031	-0.310
5.034	-0.325
5.037	-0.335
5.040	-0.355
5.043	-0.350
5.046	-0.350
5.049	-0.360
5.052	-0.360
5.055	-0.370
5.058	-0.375
5.061	-0.360
5.064	-0.350
5.067	-0.350
5.070	-0.370
5.073	-0.385
5.076	-0.385
5.079	-0.375
5.082	-0.360
5.085	-0.370
5.088	-0.370
5.091	-0.370
5.094	-0.375
5.097	-0.390
5.100	-0.385
5.103	-0.405
5.106	-0.430
5.109	-0.430
5.112	-0.415
5.115	-0.300
5.118	-0.135
5.121	0.075
5.124	0.275
5.127	0.515
5.130	0.785
5.133	0.975
5.136	1.000
5.139	0.820
5.142	0.530
5.145	0.265
5.148	0.000
5.151	-0.200
5.154	-0.270
5.157	-0.300
5.160	-0.335
5.163	-0.370
5.166	-0.370
5.169	-0.360
5.172	-0.365
5.175	-0.390
5.178	-0.415
5.181	-0.455
5.184	-0.480
5.187	-0.470
5.190	-0.465
5.193	-0.480
5.196	-0.475
5.199	-0.500
5.202	-0.495
5.205	-0.485
5.208	-0.490
5.211	-0.490
5.214	-0.500
5.217	-0.515
5.220	-0.515
5.223	-0.500
5.226	-0.485
5.229	-0.485
5.232	-0.490
5.235	-0.510
5.238	-0.520
5.241	-0.520
5.244	-0.510
5.247	-0.495
5.250	-0.490
5.253	-0.500
5.256	-0.500
5.259	-0.515
5.262	-0.515
5.265	-0.520
5.268	-0.520
5.271	-0.520
5.274	-0.525
5.277	-0.505
5.280	-0.500
5.283	-0.490
5.286	-0.515
5.289	-0.515
5.292	-0.535
5.295	-0.510
5.298	-0.515
5.301	-0.515
5.304	-0.540
5.307	-0.545
5.310	-0.520
5.313	-0.510
5.316	-0.485
5.319	-0.485
5.322	-0.495
5.325	-0.510
5.328	-0.525
5.331	-0.510
5.334	-0.500
5.337	-0.495
5.340	-0.510
5.343	-0.505
5.346	-0.500
5.349	-0.475
5.352	-0.490
5.355	-0.480
5.358	-0.485
5.361	-0.495
5.364	-0.495
5.367	-0.495
5.370	-0.495
5.373	-0.490
5.376	-0.495
5.379	-0.485
5.382	-0.470
5.385	-0.450
5.388	-0.440
5.391	-0.440
5.394	-0.450
5.397	-0.465
5.400	-0.455
5.403	-0.445
5.406	-0.415
5.409	-0.420
5.412	-0.410
5.415	-0.415
5.418	-0.410
5.421	-0.395
5.424	-0.370
5.427	-0.365
5.430	-0.355
5.433	-0.360
5.436	-0.370
5.439	-0.355
5.442	-0.320
5.445	-0.305
5.448	-0.320
5.451	-0.325
5.454	-0.330
5.457	-0.315
5.460	-0.295
5.463	-0.300
5.466	-0.280
5.469	-0.285
5.472	-0.280
5.475	-0.275
5.478	-0.265
5.481	-0.265
5.484	-0.270
5.487	-0.280
5.490	-0.290
5.493	-0.295
5.496	-0.295
5.499	-0.305
5.502	-0.320
5.505	-0.320
5.508	-0.335
5.511	-0.330
5.514	-0.335
5.517	-0.360
5.520	-0.355
5.523	-0.365
5.526	-0.380
5.529	-0.405
5.532	-0.405
5.535	-0.415
5.538	-0.440
5.541	-0.435
5.544	-0.445
5.547	-0.440
5.550	-0.420
5.553	-0.425
5.556	-0.445
5.559	-0.450
5.562	-0.460
5.565	-0.445
5.568	-0.450
5.571	-0.455
5.574	-0.465
5.577	-0.470
5.580	-0.465
5.583	-0.440
5.586	-0.440
5.589	-0.460
5.592	-0.465
5.595	-0.465
5.598	-0.455
5.601	-0.455
5.604	-0.480
5.607	-0.490
5.610	-0.480
5.613	-0.480
5.616	-0.505
5.619	-0.485
5.622	-0.460
5.625	-0.455
5.628	-0.465
5.631	-0.480
5.634	-0.490
5.637	-0.465
5.640	-0.435
5.643	-0.430
5.646	-0.455
5.649	-0.485
5.652	-0.490
5.655	-0.460
5.658	-0.445
5.661	-0.450
5.664	-0.470
5.667	-0.485
5.670	-0.470
5.673	-0.450
5.676	-0.445
5.679	-0.440
5.682	-0.425
5.685	-0.460
5.688	-0.460
5.691	-0.455
5.694	-0.455
5.697	-0.455
5.700	-0.450
5.703	-0.460
5.706	-0.455
5.709	-0.440
5.712	-0.430
5.715	-0.430
5.718	-0.445
5.721	-0.450
5.724	-0.450
5.727	-0.445
5.730	-0.445
5.733	-0.460
5.736	-0.470
5.739	-0.460
5.742	-0.465
5.745	-0.450
5.748	-0.445
5.751	-0.430
5.754	-0.445
5.757	-0.460
5.760	-0.460
5.763	-0.435
5.766	-0.440
5.769	-0.430
5.772	-0.425
5.775	-0.445
5.778	-0.455
5.781	-0.465
5.784	-0.465
5.787	-0.470
5.790	-0.460
5.793	-0.455
5.796	-0.445
5.799	-0.445
5.802	-0.455
5.805	-0.450
5.808	-0.445
5.811	-0.450
5.814	-0.470
5.817	-0.480
5.820	-0.455
5.823	-0.435
5.826	-0.440
5.829	-0.450
5.832	-0.470
5.835	-0.465
5.838	-0.445
5.841	-0.445
5.844	-0.465
5.847	-0.470
5.850	-0.465
5.853	-0.465
5.856	-0.465
5.859	-0.475
5.862	-0.480
5.865	-0.480
5.868	-0.475
5.871	-0.475
5.874	-0.455
5.877	-0.460
5.880	-0.470
5.883	-0.480
5.886	-0.480
5.889	-0.460
5.892	-0.460
5.895	-0.460
5.898	-0.460
5.901	-0.460
5.904	-0.470
5.907	-0.450
5.910	-0.440
5.913	-0.420
5.916	-0.415
5.919	-0.425
5.922	-0.425
5.925	-0.420
5.928	-0.405
5.931	-0.390
5.934	-0.400
5.937	-0.415
5.940	-0.400
5.943	-0.365
5.946	-0.320
5.949	-0.290
5.952	-0.305
5.955	-0.345
5.958	-0.385
5.961	-0.345
5.964	-0.340
5.967	-0.325
5.970	-0.350
5.973	-0.380
5.976	-0.400
5.979	-0.390
5.982	-0.380
5.985	-0.400
5.988	-0.405
5.991	-0.430
5.994	-0.450
5.997	-0.455
6.000	-0.450
6.003	-0.460
6.006	-0.470
6.009	-0.475
6.012	-0.490
6.015	-0.475
6.018	-0.470
6.021	-0.465
6.024	-0.465
6.027	-0.475
6.030	-0.470
6.033	-0.455
6.036	-0.460
6.039	-0.505
6.042	-0.550
6.045	-0.550
6.048	-0.535
6.051	-0.500
6.054	-0.465
6.057	-0.450
6.060	-0.475
6.063	-0.510
6.066	-0.535
6.069	-0.545
6.072	-0.520
6.075	-0.525
6.078	-0.525
6.081	-0.540
6.084	-0.535
6.087	-0.460
6.090	-0.310
6.093	-0.080
6.096	0.185
6.099	0.475
6.102	0.780
6.105	1.025
6.108	1.065
6.111	0.850
6.114	0.515
6.117	0.205
6.120	-0.095
6.123	-0.290
6.126	-0.380
6.129	-0.405
6.132	-0.465
6.135	-0.485
6.138	-0.505
6.141	-0.505
6.144	-0.505
6.147	-0.505
6.150	-0.540
6.153	-0.565
6.156	-0.590
6.159	-0.575
6.162	-0.555
6.165	-0.555
6.168	-0.560
6.171	-0.565
6.174	-0.585
6.177	-0.575
6.180	-0.565
6.183	-0.570
6.186	-0.560
6.189	-0.565
6.192	-0.570
6.195	-0.570
6.198	-0.560
6.201	-0.550
6.204	-0.570
6.207	-0.560
6.210	-0.580
6.213	-0.570
6.216	-0.575
6.219	-0.565
6.222	-0.575
6.225	-0.570
6.228	-0.570
6.231	-0.580
6.234	-0.570
6.237	-0.560
6.240	-0.565
6.243	-0.560
6.246	-0.565
6.249	-0.555
6.252	-0.555
6.255	-0.565
6.258	-0.555
6.261	-0.560
6.264	-0.575
6.267	-0.565
6.270	-0.550
6.273	-0.540
6.276	-0.530
6.279	-0.540
6.282	-0.570
6.285	-0.570
6.288	-0.565
6.291	-0.565
6.294	-0.555
6.297	-0.555
6.300	-0.555
6.303	-0.530
6.306	-0.520
6.309	-0.525
6.312	-0.525
6.315	-0.535
6.318	-0.530
6.321	-0.520
6.324	-0.500
6.327	-0.500
6.330	-0.515
6.333	-0.525
6.336	-0.525
6.339	-0.490
6.342	-0.475
6.345	-0.465
6.348	-0.480
6.351	-0.470
6.354	-0.470
6.357	-0.450
6.360	-0.445
6.363	-0.440
6.366	-0.435
6.369	-0.445
6.372	-0.445
6.375	-0.435
6.378	-0.435
6.381	-0.420
6.384	-0.395
6.387	-0.380
6.390	-0.355
6.393	-0.340
6.396	-0.330
6.399	-0.345
6.402	-0.340
6.405	-0.345
6.408	-0.345
6.411	-0.330
6.414	-0.310
6.417	-0.305
6.420	-0.295
6.423	-0.300
6.426	-0.315
6.429	-0.305
6.432	-0.280
6.435	-0.295
6.438	-0.300
6.441	-0.305
6.444	-0.310
6.447	-0.315
6.450	-0.325
6.453	-0.320
6.456	-0.320
6.459	-0.350
6.462	-0.360
6.465	-0.370
6.468	-0.370
6.471	-0.370
6.474	-0.385
6.477	-0.405
6.480	-0.410
6.483	-0.405
6.486	-0.410
6.489	-0.415
6.492	-0.435
6.495	-0.445
6.498	-0.470
6.501	-0.445
6.504	-0.445
6.507	-0.425
6.510	-0.455
6.513	-0.460
6.516	-0.465
6.519	-0.465
6.522	-0.465
6.525	-0.465
6.528	-0.455
6.531	-0.450
6.534	-0.460
6.537	-0.450
6.540	-0.445
6.543	-0.455
6.546	-0.465
6.549	-0.460
6.552	-0.465
6.555	-0.445
6.558	-0.430
6.561	-0.425
6.564	-0.445
6.567	-0.440
6.570	-0.450
6.573	-0.455
6.576	-0.435
6.579	-0.430
6.582	-0.430
6.585	-0.455
6.588	-0.465
6.591	-0.440
6.594	-0.425
6.597	-0.420
6.600	-0.440
6.603	-0.450
6.606	-0.435
6.609	-0.420
6.612	-0.400
6.615	-0.400
6.618	-0.410
6.621	-0.425
6.624	-0.425
6.627	-0.415
6.630	-0.415
6.633	-0.425
6.636	-0.415
6.639	-0.415
6.642	-0.415
6.645	-0.400
6.648	-0.400
6.651	-0.410
6.654	-0.425
6.657	-0.425
6.660	-0.420
6.663	-0.410
6.666	-0.400
6.669	-0.410
6.672	-0.425
6.675	-0.435
6.678	-0.440
6.681	-0.390
6.684	-0.385
6.687	-0.370
6.690	-0.360
6.693	-0.350
6.696	-0.355
6.699	-0.390
6.702	-0.410
6.705	-0.450
6.708	-0.460
6.711	-0.465
6.714	-0.465
6.717	-0.440
6.720	-0.390
6.723	-0.355
6.726	-0.305
6.729	-0.315
6.732	-0.370
6.735	-0.425
6.738	-0.435
6.741	-0.435
6.744	-0.420
6.747	-0.390
6.750	-0.370
6.753	-0.365
6.756	-0.350
6.759	-0.375
6.762	-0.390
6.765	-0.425
6.768	-0.420
6.771	-0.410
6.774	-0.405
6.777	-0.395
6.780	-0.395
6.783	-0.385
6.786	-0.390
6.789	-0.385
6.792	-0.380
6.795	-0.375
6.798	-0.365
6.801	-0.360
6.804	-0.355
6.807	-0.355
6.810	-0.350
6.813	-0.370
6.816	-0.375
6.819	-0.380
6.822	-0.385
6.825	-0.370
6.828	-0.355
6.831	-0.365
6.834	-0.370
6.837	-0.380
6.840	-0.380
6.843	-0.365
6.846	-0.340
6.849	-0.330
6.852	-0.335
6.855	-0.345
6.858	-0.350
6.861	-0.355
6.864	-0.325
6.867	-0.310
6.870	-0.320
6.873	-0.330
6.876	-0.320
6.879	-0.290
6.882	-0.255
6.885	-0.230
6.888	-0.190
6.891	-0.175
6.894	-0.185
6.897	-0.180
6.900	-0.200
6.903	-0.205
6.906	-0.220
6.909	-0.230
6.912	-0.235
6.915	-0.245
6.918	-0.250
6.921	-0.250
6.924	-0.255
6.927	-0.250
6.930	-0.250
6.933	-0.240
6.936	-0.255
6.939	-0.270
6.942	-0.275
6.945	-0.275
6.948	-0.285
6.951	-0.280
6.954	-0.305
6.957	-0.345
6.960	-0.365
6.963	-0.355
6.966	-0.365
6.969	-0.370
6.972	-0.355
6.975	-0.375
6.978	-0.365
6.981	-0.385
6.984	-0.380
6.987	-0.375
6.990	-0.360
6.993	-0.370
6.996	-0.375
6.999	-0.385
7.002	-0.375
7.005	-0.365
7.008	-0.345
7.011	-0.365
7.014	-0.385
7.017	-0.420
7.020	-0.440
7.023	-0.450
7.026	-0.380
7.029	-0.220
7.032	0.010
7.035	0.320
7.038	0.695
7.041	1.095
7.044	1.365
7.047	1.375
7.050	1.130
7.053	0.750
7.056	0.390
7.059	0.120
7.062	-0.015
7.065	-0.065
7.068	-0.100
7.071	-0.170
7.074	-0.200
7.077	-0.225
7.080	-0.235
7.083	-0.270
7.086	-0.305
7.089	-0.355
7.092	-0.375
7.095	-0.380
7.098	-0.395
7.101	-0.380
7.104	-0.395
7.107	-0.405
7.110	-0.425
7.113	-0.415
7.116	-0.410
7.119	-0.405
7.122	-0.400
7.125	-0.420
7.128	-0.430
7.131	-0.415
7.134	-0.415
7.137	-0.425
7.140	-0.435
7.143	-0.425
7.146	-0.430
7.149	-0.420
7.152	-0.410
7.155	-0.405
7.158	-0.415
7.161	-0.415
7.164	-0.425
7.167	-0.410
7.170	-0.400
7.173	-0.390
7.176	-0.405
7.179	-0.415
7.182	-0.420
7.185	-0.410
7.188	-0.390
7.191	-0.390
7.194	-0.395
7.197	-0.415
7.200	-0.420
7.203	-0.400
7.206	-0.395
7.209	-0.410
7.212	-0.420
7.215	-0.420
7.218	-0.415
7.221	-0.415
7.224	-0.390
7.227	-0.395
7.230	-0.390
7.233	-0.395
7.236	-0.390
7.239	-0.395
7.242	-0.390
7.245	-0.385
7.248	-0.385
7.251	-0.395
7.254	-0.385
7.257	-0.375
7.260	-0.360
7.263	-0.375
7.266	-0.370
7.269	-0.360
7.272	-0.355
7.275	-0.330
7.278	-0.320
7.281	-0.315
7.284	-0.320
7.287	-0.325
7.290	-0.320
7.293	-0.280
7.296	-0.260
7.299	-0.255
7.302	-0.260
7.305	-0.265
7.308	-0.260
7.311	-0.230
7.314	-0.205
7.317	-0.190
7.320	-0.190
7.323	-0.190
7.326	-0.185
7.329	-0.155
7.332	-0.135
7.335	-0.115
7.338	-0.125
7.341	-0.125
7.344	-0.110
7.347	-0.110
7.350	-0.105
7.353	-0.090
7.356	-0.090
7.359	-0.080
7.362	-0.080
7.365	-0.090
7.368	-0.065
7.371	-0.090
7.374	-0.090
7.377	-0.090
7.380	-0.100
7.383	-0.110
7.386	-0.125
7.389	-0.130
7.392	-0.145
7.395	-0.165
7.398	-0.190
7.401	-0.195
7.404	-0.200
7.407	-0.210
7.410	-0.230
7.413	-0.245
7.416	-0.260
7.419	-0.270
7.422	-0.265
7.425	-0.270
7.428	-0.280
7.431	-0.295
7.434	-0.325
7.437	-0.315
7.440	-0.310
7.443	-0.300
7.446	-0.290
7.449	-0.310
7.452	-0.320
7.455	-0.320
7.458	-0.305
7.461	-0.310
7.464	-0.330
7.467	-0.345
7.470	-0.355
7.473	-0.340
7.476	-0.330
7.479	-0.335
7.482	-0.325
7.485	-0.325
7.488	-0.330
7.491	-0.330
7.494	-0.320
7.497	-0.325
7.500	-0.330
7.503	-0.335
7.506	-0.335
7.509	-0.330
7.512	-0.315
7.515	-0.325
7.518	-0.320
7.521	-0.315
7.524	-0.325
7.527	-0.310
7.530	-0.315
7.533	-0.310
7.536	-0.295
7.539	-0.305
7.542	-0.315
7.545	-0.325
7.548	-0.310
7.551	-0.310
7.554	-0.305
7.557	-0.295
7.560	-0.310
7.563	-0.305
7.566	-0.295
7.569	-0.285
7.572	-0.285
7.575	-0.285
7.578	-0.300
7.581	-0.310
7.584	-0.300
7.587	-0.295
7.590	-0.280
7.593	-0.310
7.596	-0.310
7.599	-0.295
7.602	-0.275
7.605	-0.275
7.608	-0.290
7.611	-0.300
7.614	-0.310
7.617	-0.300
7.620	-0.275
7.623	-0.280
7.626	-0.285
7.629	-0.300
7.632	-0.310
7.635	-0.300
7.638	-0.280
7.641	-0.285
7.644	-0.300
7.647	-0.305
7.650	-0.310
7.653	-0.300
7.656	-0.295
7.659	-0.290
7.662	-0.285
7.665	-0.295
7.668	-0.295
7.671	-0.275
7.674	-0.280
7.677	-0.280
7.680	-0.300
7.683	-0.305
7.686	-0.300
7.689	-0.290
7.692	-0.285
7.695	-0.280
7.698	-0.285
7.701	-0.290
7.704	-0.300
7.707	-0.290
7.710	-0.295
7.713	-0.290
7.716	-0.290
7.719	-0.295
7.722	-0.300
7.725	-0.300
7.728	-0.295
7.731	-0.290
7.734	-0.295
7.737	-0.290
7.740	-0.310
7.743	-0.300
7.746	-0.290
7.749	-0.285
7.752	-0.285
7.755	-0.305
7.758	-0.300
7.761	-0.300
7.764	-0.295
7.767	-0.280
7.770	-0.285
7.773	-0.305
7.776	-0.300
7.779	-0.295
7.782	-0.270
7.785	-0.260
7.788	-0.260
7.791	-0.270
7.794	-0.285
7.797	-0.265
7.800	-0.250
7.803	-0.245
7.806	-0.255
7.809	-0.270
7.812	-0.270
7.815	-0.250
7.818	-0.230
7.821	-0.190
7.824	-0.150
7.827	-0.135
7.830	-0.135
7.833	-0.155
7.836	-0.150
7.839	-0.150
7.842	-0.150
7.845	-0.160
7.848	-0.185
7.851	-0.210
7.854	-0.205
7.857	-0.205
7.860	-0.215
7.863	-0.225
7.866	-0.230
7.869	-0.220
7.872	-0.210
7.875	-0.230
7.878	-0.250
7.881	-0.290
7.884	-0.300
7.887	-0.295
7.890	-0.305
7.893	-0.305
7.896	-0.330
7.899	-0.335
7.902	-0.335
7.905	-0.340
7.908	-0.335
7.911	-0.330
7.914	-0.320
7.917	-0.315
7.920	-0.340
7.923	-0.340
7.926	-0.315
7.929	-0.315
7.932	-0.335
7.935	-0.345
7.938	-0.350
7.941	-0.350
7.944	-0.335
7.947	-0.335
7.950	-0.330
7.953	-0.345
7.956	-0.355
7.959	-0.355
7.962	-0.365
7.965	-0.335
7.968	-0.205
7.971	0.015
7.974	0.320
7.977	0.695
7.980	1.075
7.983	1.325
7.986	1.305
7.989	1.045
7.992	0.690
7.995	0.360
7.998	0.105
8.001	-0.020
8.004	-0.055
8.007	-0.095
8.010	-0.145
8.013	-0.185
8.016	-0.205
8.019	-0.210
8.022	-0.235
8.025	-0.270
8.028	-0.285
8.031	-0.290
8.034	-0.300
8.037	-0.305
8.040	-0.320
8.043	-0.315
8.046	-0.305
8.049	-0.310
8.052	-0.360
8.055	-0.425
8.058	-0.470
8.061	-0.495
8.064	-0.495
8.067	-0.475
8.070	-0.455
8.073	-0.450
8.076	-0.450
8.079	-0.455
8.082	-0.450
8.085	-0.445
8.088	-0.425
8.091	-0.420
8.094	-0.420
8.097	-0.420
8.100	-0.420
8.103	-0.415
8.106	-0.415
8.109	-0.405
8.112	-0.415
8.115	-0.435
8.118	-0.435
8.121	-0.410
8.124	-0.400
8.127	-0.410
8.130	-0.410
8.133	-0.420
8.136	-0.415
8.139	-0.410
8.142	-0.415
8.145	-0.415
8.148	-0.420
8.151	-0.420
8.154	-0.435
8.157	-0.435
8.160	-0.430
8.163	-0.440
8.166	-0.435
8.169	-0.430
8.172	-0.430
8.175	-0.420
8.178	-0.405
8.181	-0.400
8.184	-0.420
8.187	-0.435
8.190	-0.445
8.193	-0.415
8.196	-0.405
8.199	-0.410
8.202	-0.415
8.205	-0.420
8.208	-0.435
8.211	-0.410
8.214	-0.400
8.217	-0.390
8.220	-0.390
8.223	-0.405
8.226	-0.395
8.229	-0.370
8.232	-0.365
8.235	-0.360
8.238	-0.360
8.241	-0.360
8.244	-0.330
8.247	-0.320
8.250	-0.315
8.253	-0.325
8.256	-0.330
8.259	-0.320
8.262	-0.320
8.265	-0.280
8.268	-0.250
8.271	-0.235
8.274	-0.210
8.277	-0.210
8.280	-0.225
8.283	-0.190
8.286	-0.165
8.289	-0.170
8.292	-0.180
8.295	-0.195
8.298	-0.210
8.301	-0.200
8.304	-0.175
8.307	-0.160
8.310	-0.175
8.313	-0.175
8.316	-0.180
8.319	-0.170
8.322	-0.165
8.325	-0.160
8.328	-0.175
8.331	-0.190
8.334	-0.195
8.337	-0.190
8.340	-0.220
8.343	-0.255
8.346	-0.300
8.349	-0.340
8.352	-0.335
8.355	-0.320
8.358	-0.315
8.361	-0.335
8.364	-0.345
8.367	-0.350
8.370	-0.350
8.373	-0.360
8.376	-0.365
8.379	-0.365
8.382	-0.365
8.385	-0.355
8.388	-0.370
8.391	-0.370
8.394	-0.365
8.397	-0.365
8.400	-0.375
8.403	-0.385
8.406	-0.385
8.409	-0.370
8.412	-0.380
8.415	-0.390
8.418	-0.405
8.421	-0.400
8.424	-0.405
8.427	-0.405
8.430	-0.385
8.433	-0.375
8.436	-0.385
8.439	-0.395
8.442	-0.415
8.445	-0.395
8.448	-0.375
8.451	-0.365
8.454	-0.370
8.457	-0.395
8.460	-0.390
8.463	-0.395
8.466	-0.380
8.469	-0.375
8.472	-0.370
8.475	-0.390
8.478	-0.405
8.481	-0.385
8.484	-0.370
8.487	-0.360
8.490	-0.360
8.493	-0.370
8.496	-0.375
8.499	-0.385
8.502	-0.365
8.505	-0.360
8.508	-0.360
8.511	-0.355
8.514	-0.355
8.517	-0.345
8.520	-0.345
8.523	-0.340
8.526	-0.340
8.529	-0.355
8.532	-0.370
8.535	-0.360
8.538	-0.355
8.541	-0.350
8.544	-0.335
8.547	-0.340
8.550	-0.335
8.553	-0.335
8.556	-0.340
8.559	-0.340
8.562	-0.365
8.565	-0.350
8.568	-0.335
8.571	-0.335
8.574	-0.325
8.577	-0.340
8.580	-0.355
8.583	-0.375
8.586	-0.375
8.589	-0.345
8.592	-0.325
8.595	-0.325
8.598	-0.340
8.601	-0.365
8.604	-0.370
8.607	-0.375
8.610	-0.355
8.613	-0.365
8.616	-0.370
8.619	-0.395
8.622	-0.385
8.625	-0.360
8.628	-0.345
8.631	-0.325
8.634	-0.315
8.637	-0.310
8.640	-0.305
8.643	-0.255
8.646	-0.210
8.649	-0.230
8.652	-0.290
8.655	-0.360
8.658	-0.405
8.661	-0.440
8.664	-0.455
8.667	-0.440
8.670	-0.420
8.673	-0.400
8.676	-0.385
8.679	-0.360
8.682	-0.330
8.685	-0.295
8.688	-0.300
8.691	-0.345
8.694	-0.400
8.697	-0.410
8.700	-0.380
8.703	-0.365
8.706	-0.370
8.709	-0.375
8.712	-0.380
8.715	-0.350
8.718	-0.340
8.721	-0.340
8.724	-0.330
8.727	-0.330
8.730	-0.330
8.733	-0.320
8.736	-0.320
8.739	-0.325
8.742	-0.340
8.745	-0.340
8.748	-0.315
8.751	-0.295
8.754	-0.250
8.757	-0.205
8.760	-0.175
8.763	-0.195
8.766	-0.215
8.769	-0.215
8.772	-0.215
8.775	-0.215
8.778	-0.220
8.781	-0.235
8.784	-0.250
8.787	-0.250
8.790	-0.250
8.793	-0.245
8.796	-0.250
8.799	-0.265
8.802	-0.285
8.805	-0.295
8.808	-0.305
8.811	-0.310
8.814	-0.345
8.817	-0.370
8.820	-0.375
8.823	-0.365
8.826	-0.355
8.829	-0.350
8.832	-0.350
8.835	-0.360
8.838	-0.380
8.841	-0.370
8.844	-0.360
8.847	-0.360
8.850	-0.365
8.853	-0.375
8.856	-0.390
8.859	-0.390
8.862	-0.365
8.865	-0.355
8.868	-0.360
8.871	-0.380
8.874	-0.380
8.877	-0.380
8.880	-0.385
8.883	-0.395
8.886	-0.410
8.889	-0.445
8.892	-0.440
8.895	-0.365
8.898	-0.175
8.901	0.080
8.904	0.350
8.907	0.655
8.910	0.975
8.913	1.210
8.916	1.220
8.919	0.995
8.922	0.670
8.925	0.335
8.928	0.045
8.931	-0.105
8.934	-0.125
8.937	-0.165
8.940	-0.220
8.943	-0.240
8.946	-0.270
8.949	-0.295
8.952	-0.330
8.955	-0.360
8.958	-0.385
8.961	-0.400
8.964	-0.405
8.967	-0.405
8.970	-0.410
8.973	-0.425
8.976	-0.450
8.979	-0.480
8.982	-0.485
8.985	-0.465
8.988	-0.450
8.991	-0.445
8.994	-0.435
8.997	-0.435
9.000	-0.445
9.003	-0.440
9.006	-0.440
9.009	-0.460
9.012	-0.465
9.015	-0.475
9.018	-0.475
9.021	-0.470
9.024	-0.450
9.027	-0.450
9.030	-0.450
9.033	-0.450
9.036	-0.450
9.039	-0.435
9.042	-0.430
9.045	-0.445
9.048	-0.455
9.051	-0.465
9.054	-0.475
9.057	-0.465
9.060	-0.455
9.063	-0.460
9.066	-0.455
9.069	-0.475
9.072	-0.475
9.075	-0.470
9.078	-0.450
9.081	-0.435
9.084	-0.440
9.087	-0.440
9.090	-0.455
9.093	-0.450
9.096	-0.440
9.099	-0.415
9.102	-0.430
9.105	-0.440
9.108	-0.445
9.111	-0.435
9.114	-0.425
9.117	-0.420
9.120	-0.415
9.123	-0.425
9.126	-0.425
9.129	-0.420
9.132	-0.410
9.135	-0.405
9.138	-0.405
9.141	-0.405
9.144	-0.405
9.147	-0.395
9.150	-0.380
9.153	-0.370
9.156	-0.360
9.159	-0.370
9.162	-0.370
9.165	-0.355
9.168	-0.330
9.171	-0.315
9.174	-0.320
9.177	-0.320
9.180	-0.325
9.183	-0.310
9.186	-0.295
9.189	-0.290
9.192	-0.285
9.195	-0.285
9.198	-0.290
9.201	-0.275
9.204	-0.255
9.207	-0.240
9.210	-0.220
9.213	-0.215
9.216	-0.215
9.219	-0.190
9.222	-0.175
9.225	-0.175
9.228	-0.195
9.231	-0.200
9.234	-0.195
9.237	-0.155
9.240	-0.130
9.243	-0.120
9.246	-0.110
9.249	-0.110
9.252	-0.110
9.255	-0.105
9.258	-0.125
9.261	-0.145
9.264	-0.160
9.267	-0.180
9.270	-0.185
9.273	-0.185
9.276	-0.175
9.279	-0.165
9.282	-0.170
9.285	-0.205
9.288	-0.245
9.291	-0.260
9.294	-0.270
9.297	-0.270
9.300	-0.280
9.303	-0.285
9.306	-0.300
9.309	-0.295
9.312	-0.300
9.315	-0.300
9.318	-0.315
9.321	-0.320
9.324	-0.330
9.327	-0.305
9.330	-0.300
9.333	-0.320
9.336	-0.320
9.339	-0.315
9.342	-0.330
9.345	-0.320
9.348	-0.310
9.351	-0.320
9.354	-0.330
9.357	-0.340
9.360	-0.335
9.363	-0.330
9.366	-0.315
9.369	-0.310
9.372	-0.310
9.375	-0.330
9.378	-0.335
9.381	-0.325
9.384	-0.320
9.387	-0.305
9.390	-0.330
9.393	-0.330
9.396	-0.330
9.399	-0.315
9.402	-0.295
9.405	-0.290
9.408	-0.300
9.411	-0.300
9.414	-0.325
9.417	-0.300
9.420	-0.295
9.423	-0.285
9.426	-0.300
9.429	-0.305
9.432	-0.295
9.435	-0.295
9.438	-0.280
9.441	-0.265
9.444	-0.275
9.447	-0.300
9.450	-0.305
9.453	-0.315
9.456	-0.315
9.459	-0.300
9.462	-0.310
9.465	-0.305
9.468	-0.290
9.471	-0.280
9.474	-0.265
9.477	-0.295
9.480	-0.285
9.483	-0.310
9.486	-0.290
9.489	-0.275
9.492	-0.270
9.495	-0.275
9.498	-0.270
9.501	-0.280
9.504	-0.310
9.507	-0.300
9.510	-0.290
9.513	-0.295
9.516	-0.280
9.519	-0.290
9.522	-0.295
9.525	-0.280
9.528	-0.265
9.531	-0.270
9.534	-0.295
9.537	-0.305
9.540	-0.310
9.543	-0.305
9.546	-0.280
9.549	-0.285
9.552	-0.290
9.555	-0.295
9.558	-0.300
9.561	-0.295
9.564	-0.290
9.567	-0.280
9.570	-0.270
9.573	-0.280
9.576	-0.285
9.579	-0.280
9.582	-0.270
9.585	-0.285
9.588	-0.295
9.591	-0.295
9.594	-0.300
9.597	-0.295
9.600	-0.285
9.603	-0.280
9.606	-0.285
9.609	-0.290
9.612	-0.290
9.615	-0.275
9.618	-0.275
9.621	-0.270
9.624	-0.295
9.627	-0.320
9.630	-0.330
9.633	-0.315
9.636	-0.310
9.639	-0.300
9.642	-0.305
9.645	-0.305
9.648	-0.305
9.651	-0.300
9.654	-0.280
9.657	-0.280
9.660	-0.290
9.663	-0.295
9.666	-0.310
9.669	-0.290
9.672	-0.290
9.675	-0.275
9.678	-0.270
9.681	-0.275
9.684	-0.285
9.687	-0.280
9.690	-0.270
9.693	-0.265
9.696	-0.270
9.699	-0.280
9.702	-0.275
9.705	-0.250
9.708	-0.245
9.711	-0.260
9.714	-0.265
9.717	-0.265
9.720	-0.250
9.723	-0.210
9.726	-0.175
9.729	-0.145
9.732	-0.120
9.735	-0.105
9.738	-0.115
9.741	-0.115
9.744	-0.130
9.747	-0.120
9.750	-0.135
9.753	-0.135
9.756	-0.165
9.759	-0.165
9.762	-0.180
9.765	-0.185
9.768	-0.205
9.771	-0.195
9.774	-0.210
9.777	-0.205
9.780	-0.210
9.783	-0.225
9.786	-0.240
9.789	-0.270
9.792	-0.290
9.795	-0.300
9.798	-0.305
9.801	-0.305
9.804	-0.320
9.807	-0.325
9.810	-0.335
9.813	-0.315
9.816	-0.310
9.819	-0.315
9.822	-0.320
9.825	-0.320
9.828	-0.340
9.831	-0.315
9.834	-0.310
9.837	-0.310
9.840	-0.325
9.843	-0.325
9.846	-0.335
9.849	-0.325
9.852	-0.300
9.855	-0.300
9.858	-0.315
9.861	-0.335
9.864	-0.335
9.867	-0.340
9.870	-0.355
9.873	-0.380
9.876	-0.385
9.879	-0.370
9.882	-0.300
9.885	-0.130
9.888	0.070
9.891	0.290
9.894	0.545
9.897	0.830
9.900	1.060
9.903	1.145
9.906	1.015
9.909	0.735
9.912	0.425
9.915	0.165
9.918	-0.040
9.921	-0.145
9.924	-0.155
9.927	-0.170
9.930	-0.185
9.933	-0.210
9.936	-0.245
9.939	-0.280
9.942	-0.290
9.945	-0.315
9.948	-0.345
9.951	-0.370
9.954	-0.395
9.957	-0.435
9.960	-0.430
9.963	-0.430
9.966	-0.420
9.969	-0.420
9.972	-0.445
9.975	-0.440
9.978	-0.435
9.981	-0.425
9.984	-0.430
9.987	-0.440
9.990	-0.440
9.993	-0.430
9.996	-0.430
9.999	-0.435
10.002	-0.440
10.005	-0.455
10.008	-0.455
10.011	-0.445
10.014	-0.435
10.017	-0.425
10.020	-0.420
10.023	-0.420
10.026	-0.430
10.029	-0.440
10.032	-0.415
10.035	-0.415
10.038	-0.430
10.041	-0.435
10.044	-0.440
10.047	-0.435
10.050	-0.430
10.053	-0.415
10.056	-0.420
10.059	-0.420
10.062	-0.430
10.065	-0.420
10.068	-0.410
10.071	-0.405
10.074	-0.410
10.077	-0.410
10.080	-0.425
10.083	-0.410
10.086	-0.390
10.089	-0.380
10.092	-0.385
10.095	-0.405
10.098	-0.415
10.101	-0.415
10.104	-0.410
10.107	-0.405
10.110	-0.400
10.113	-0.410
10.116	-0.420
10.119	-0.410
10.122	-0.410
10.125	-0.395
10.128	-0.395
10.131	-0.405
10.134	-0.400
10.137	-0.390
10.140	-0.380
10.143	-0.375
10.146	-0.375
10.149	-0.380
10.152	-0.375
10.155	-0.370
10.158	-0.365
10.161	-0.355
10.164	-0.350
10.167	-0.350
10.170	-0.355
10.173	-0.350
10.176	-0.335
10.179	-0.315
10.182	-0.305
10.185	-0.300
10.188	-0.300
10.191	-0.280
10.194	-0.265
10.197	-0.255
10.200	-0.265
10.203	-0.260
10.206	-0.265
10.209	-0.270
10.212	-0.245
10.215	-0.225
10.218	-0.235
10.221	-0.215
10.224	-0.215
10.227	-0.205
10.230	-0.190
10.233	-0.175
10.236	-0.175
10.239	-0.180
10.242	-0.175
10.245	-0.170
10.248	-0.150
10.251	-0.140
10.254	-0.145
10.257	-0.150
10.260	-0.160
10.263	-0.150
10.266	-0.170
10.269	-0.170
10.272	-0.175
10.275	-0.210
10.278	-0.240
10.281	-0.250
10.284	-0.250
10.287	-0.240
10.290	-0.245
10.293	-0.250
10.296	-0.275
10.299	-0.260
10.302	-0.275
10.305	-0.290
10.308	-0.305
10.311	-0.315
10.314	-0.330
10.317	-0.320
10.320	-0.330
10.323	-0.325
10.326	-0.305
10.329	-0.315
10.332	-0.325
10.335	-0.325
10.338	-0.325
10.341	-0.330
10.344	-0.320
10.347	-0.340
10.350	-0.365
10.353	-0.350
10.356	-0.355
10.359	-0.355
10.362	-0.350
10.365	-0.355
10.368	-0.360
10.371	-0.355
10.374	-0.325
10.377	-0.305
10.380	-0.320
10.383	-0.325
10.386	-0.340
10.389	-0.340
10.392	-0.335
10.395	-0.320
10.398	-0.330
10.401	-0.345
10.404	-0.345
10.407	-0.330
10.410	-0.310
10.413	-0.315
10.416	-0.325
10.419	-0.335
10.422	-0.345
10.425	-0.335
10.428	-0.320
10.431	-0.325
10.434	-0.335
10.437	-0.345
10.440	-0.350
10.443	-0.335
10.446	-0.335
10.449	-0.315
10.452	-0.320
10.455	-0.315
10.458	-0.325
10.461	-0.310
10.464	-0.310
10.467	-0.305
10.470	-0.305
10.473	-0.310
10.476	-0.330
10.479	-0.325
10.482	-0.315
10.485	-0.295
10.488	-0.295
10.491	-0.300
10.494	-0.310
10.497	-0.295
10.500	-0.290
10.503	-0.290
10.506	-0.315
10.509	-0.315
10.512	-0.310
10.515	-0.280
10.518	-0.280
10.521	-0.280
10.524	-0.305
10.527	-0.310
10.530	-0.325
10.533	-0.335
10.536	-0.335
10.539	-0.315
10.542	-0.320
10.545	-0.315
10.548	-0.320
10.551	-0.295
10.554	-0.285
10.557	-0.285
10.560	-0.290
10.563	-0.305
10.566	-0.310
10.569	-0.310
10.572	-0.295
10.575	-0.305
10.578	-0.310
10.581	-0.320
10.584	-0.320
10.587	-0.325
10.590	-0.320
10.593	-0.325
10.596	-0.315
10.599	-0.310
10.602	-0.310
10.605	-0.330
10.608	-0.315
10.611	-0.330
10.614	-0.315
10.617	-0.330
10.620	-0.325
10.623	-0.320
10.626	-0.305
10.629	-0.315
10.632	-0.315
10.635	-0.315
10.638	-0.335
10.641	-0.325
10.644	-0.325
10.647	-0.320
10.650	-0.310
10.653	-0.315
10.656	-0.320
10.659	-0.320
10.662	-0.310
10.665	-0.300
10.668	-0.295
10.671	-0.320
10.674	-0.335
10.677	-0.305
10.680	-0.275
10.683	-0.270
10.686	-0.270
10.689	-0.280
10.692	-0.305
10.695	-0.305
10.698	-0.275
10.701	-0.275
10.704	-0.275
10.707	-0.285
10.710	-0.290
10.713	-0.270
10.716	-0.215
10.719	-0.200
10.722	-0.185
10.725	-0.155
10.728	-0.135
10.731	-0.145
10.734	-0.175
10.737	-0.195
10.740	-0.215
10.743	-0.230
10.746	-0.245
10.749	-0.240
10.752	-0.240
10.755	-0.230
10.758	-0.230
10.761	-0.240
10.764	-0.255
10.767	-0.255
10.770	-0.270
10.773	-0.280
10.776	-0.285
10.779	-0.300
10.782	-0.315
10.785	-0.340
10.788	-0.340
10.791	-0.340
10.794	-0.330
10.797	-0.340
10.800	-0.360
10.803	-0.350
10.806	-0.335
10.809	-0.320
10.812	-0.345
10.815	-0.360
10.818	-0.370
10.821	-0.375
10.824	-0.385
10.827	-0.370
10.830	-0.355
10.833	-0.360
10.836	-0.375
10.839	-0.385
10.842	-0.360
10.845	-0.330
10.848	-0.330
10.851	-0.345
10.854	-0.385
10.857	-0.400
10.860	-0.415
10.863	-0.415
10.866	-0.420
10.869	-0.385
10.872	-0.280
10.875	-0.080
10.878	0.155
10.881	0.425
10.884	0.745
10.887	1.030
10.890	1.165
10.893	1.085
10.896	0.850
10.899	0.570
10.902	0.300
10.905	0.030
10.908	-0.145
10.911	-0.195
10.914	-0.220
10.917	-0.265
10.920	-0.305
10.923	-0.330
10.926	-0.335
10.929	-0.355
10.932	-0.380
10.935	-0.420
10.938	-0.445
10.941	-0.450
10.944	-0.460
10.947	-0.445
10.950	-0.435
10.953	-0.450
10.956	-0.450
10.959	-0.465
10.962	-0.475
10.965	-0.475
10.968	-0.475
10.971	-0.480
10.974	-0.470
10.977	-0.460
10.980	-0.465
10.983	-0.460
10.986	-0.440
10.989	-0.430
10.992	-0.430
10.995	-0.440
10.998	-0.450
11.001	-0.465
11.004	-0.480
11.007	-0.485
11.010	-0.485
11.013	-0.475
11.016	-0.480
11.019	-0.475
11.022	-0.465
11.025	-0.440
11.028	-0.450
11.031	-0.455
11.034	-0.455
11.037	-0.465
11.040	-0.450
11.043	-0.450
11.046	-0.465
11.049	-0.485
11.052	-0.485
11.055	-0.475
11.058	-0.470
11.061	-0.465
11.064	-0.465
11.067	-0.470
11.070	-0.470
11.073	-0.455
11.076	-0.450
11.079	-0.440
11.082	-0.440
11.085	-0.460
11.088	-0.475
11.091	-0.445
11.094	-0.445
11.097	-0.420
11.100	-0.420
11.103	-0.420
11.106	-0.430
11.109	-0.435
11.112	-0.420
11.115	-0.410
11.118	-0.410
11.121	-0.405
11.124	-0.405
11.127	-0.395
11.130	-0.385
11.133	-0.375
11.136	-0.365
11.139	-0.380
11.142	-0.385
11.145	-0.365
11.148	-0.350
11.151	-0.345
11.154	-0.335
11.157	-0.335
11.160	-0.330
11.163	-0.310
11.166	-0.305
11.169	-0.285
11.172	-0.275
11.175	-0.275
11.178	-0.280
11.181	-0.265
11.184	-0.255
11.187	-0.235
11.190	-0.200
11.193	-0.220
11.196	-0.230
11.199	-0.230
11.202	-0.225
11.205	-0.200
11.208	-0.190
11.211	-0.185
11.214	-0.200
11.217	-0.195
11.220	-0.185
11.223	-0.175
11.226	-0.180
11.229	-0.180
11.232	-0.185
11.235	-0.190
11.238	-0.175
11.241	-0.185
11.244	-0.200
11.247	-0.225
11.250	-0.245
11.253	-0.250
11.256	-0.245
11.259	-0.235
11.262	-0.245
11.265	-0.275
11.268	-0.290
11.271	-0.300
11.274	-0.295
11.277	-0.305
11.280	-0.305
11.283	-0.315
11.286	-0.335
11.289	-0.335
11.292	-0.340
11.295	-0.325
11.298	-0.335
11.301	-0.355
11.304	-0.365
11.307	-0.365
11.310	-0.355
11.313	-0.340
11.316	-0.355
11.319	-0.350
11.322	-0.360
11.325	-0.360
11.328	-0.350
11.331	-0.365
11.334	-0.370
11.337	-0.370
11.340	-0.370
11.343	-0.365
11.346	-0.350
11.349	-0.345
11.352	-0.355
11.355	-0.375
11.358	-0.385
11.361	-0.390
11.364	-0.365
11.367	-0.345
11.370	-0.340
11.373	-0.350
11.376	-0.360
11.379	-0.350
11.382	-0.345
11.385	-0.330
11.388	-0.340
11.391	-0.345
11.394	-0.365
11.397	-0.350
11.400	-0.330
11.403	-0.315
11.406	-0.325
11.409	-0.330
11.412	-0.345
11.415	-0.335
11.418	-0.330
11.421	-0.320
11.424	-0.315
11.427	-0.335
11.430	-0.330
11.433	-0.335
11.436	-0.320
11.439	-0.320
11.442	-0.315
11.445	-0.320
11.448	-0.320
11.451	-0.325
11.454	-0.325
11.457	-0.325
11.460	-0.320
11.463	-0.325
11.466	-0.335
11.469	-0.325
11.472	-0.320
11.475	-0.310
11.478	-0.315
11.481	-0.320
11.484	-0.340
11.487	-0.320
11.490	-0.320
11.493	-0.305
11.496	-0.310
11.499	-0.315
11.502	-0.340
11.505	-0.345
11.508	-0.320
11.511	-0.330
11.514	-0.315
11.517	-0.315
11.520	-0.330
11.523	-0.330
11.526	-0.330
11.529	-0.335
11.532	-0.335
11.535	-0.320
11.538	-0.330
11.541	-0.325
11.544	-0.320
11.547	-0.315
11.550	-0.325
11.553	-0.320
11.556	-0.340
11.559	-0.330
11.562	-0.330
11.565	-0.320
11.568	-0.330
11.571	-0.345
11.574	-0.335
11.577	-0.340
11.580	-0.325
11.583	-0.320
11.586	-0.315
11.589	-0.310
11.592	-0.330
11.595	-0.325
11.598	-0.320
11.601	-0.320
11.604	-0.325
11.607	-0.330
11.610	-0.345
11.613	-0.340
11.616	-0.325
11.619	-0.320
11.622	-0.335
11.625	-0.330
11.628	-0.345
11.631	-0.335
11.634	-0.325
11.637	-0.310
11.640	-0.315
11.643	-0.320
11.646	-0.335
11.649	-0.340
11.652	-0.320
11.655	-0.320
11.658	-0.320
11.661	-0.310
11.664	-0.310
11.667	-0.300
11.670	-0.300
11.673	-0.310
11.676	-0.315
11.679	-0.325
11.682	-0.320
11.685	-0.310
11.688	-0.285
11.691	-0.270
11.694	-0.285
11.697	-0.285
11.700	-0.300
11.703	-0.290
11.706	-0.260
11.709	-0.235
11.712	-0.215
11.715	-0.190
11.718	-0.170
11.721	-0.140
11.724	-0.135
11.727	-0.140
11.730	-0.170
11.733	-0.165
11.736	-0.175
11.739	-0.185
11.742	-0.195
11.745	-0.200
11.748	-0.205
11.751	-0.225
11.754	-0.225
11.757	-0.220
11.760	-0.215
11.763	-0.225
11.766	-0.235
11.769	-0.260
11.772	-0.280
11.775	-0.280
11.778	-0.295
11.781	-0.295
11.784	-0.305
11.787	-0.315
11.790	-0.325
11.793	-0.330
11.796	-0.315
11.799	-0.305
11.802	-0.300
11.805	-0.315
11.808	-0.335
11.811	-0.340
11.814	-0.330
11.817	-0.315
11.820	-0.320
11.823	-0.335
11.826	-0.340
11.829	-0.345
11.832	-0.340
11.835	-0.325
11.838	-0.335
11.841	-0.355
11.844	-0.365
11.847	-0.375
11.850	-0.385
11.853	-0.390
11.856	-0.395
11.859	-0.360
11.862	-0.245
11.865	-0.040
11.868	0.190
11.871	0.480
11.874	0.810
11.877	1.095
11.880	1.190
11.883	1.035
11.886	0.735
11.889	0.450
11.892	0.180
11.895	-0.015
11.898	-0.095
11.901	-0.110
11.904	-0.135
11.907	-0.165
11.910	-0.190
11.913	-0.225
11.916	-0.245
11.919	-0.270
11.922	-0.305
11.925	-0.325
11.928	-0.365
11.931	-0.380
11.934	-0.395
11.937	-0.390
11.940	-0.385
11.943	-0.375
11.946	-0.385
11.949	-0.395
11.952	-0.410
11.955	-0.405
11.958	-0.400
11.961	-0.395
11.964	-0.400
11.967	-0.420
11.970	-0.420
11.973	-0.410
11.976	-0.405
11.979	-0.405
11.982	-0.405
11.985	-0.405
11.988	-0.400
11.991	-0.390
11.994	-0.385
11.997	-0.400
12.000	-0.405
12.003	-0.400
12.006	-0.415
12.009	-0.400
12.012	-0.420
12.015	-0.385
12.018	-0.390
12.021	-0.385
12.024	-0.400
12.027	-0.385
12.030	-0.390
12.033	-0.395
12.036	-0.410
12.039	-0.415
12.042	-0.415
12.045	-0.415
12.048	-0.395
12.051	-0.390
12.054	-0.380
12.057	-0.380
12.060	-0.395
12.063	-0.390
12.066	-0.375
12.069	-0.370
12.072	-0.365
12.075	-0.390
12.078	-0.400
12.081	-0.395
12.084	-0.380
12.087	-0.365
12.090	-0.365
12.093	-0.365
12.096	-0.370
12.099	-0.355
12.102	-0.345
12.105	-0.345
12.108	-0.340
12.111	-0.345
12.114	-0.350
12.117	-0.335
12.120	-0.320
12.123	-0.305
12.126	-0.295
12.129	-0.295
12.132	-0.310
12.135	-0.280
12.138	-0.265
12.141	-0.245
12.144	-0.235
12.147	-0.245
12.150	-0.250
12.153	-0.240
12.156	-0.205
12.159	-0.190
12.162	-0.180
12.165	-0.165
12.168	-0.155
12.171	-0.160
12.174	-0.145
12.177	-0.140
12.180	-0.145
12.183	-0.135
12.186	-0.155
12.189	-0.155
12.192	-0.125
12.195	-0.115
12.198	-0.105
12.201	-0.105
12.204	-0.115
12.207	-0.115
12.210	-0.100
12.213	-0.105
12.216	-0.130
12.219	-0.145
12.222	-0.175
12.225	-0.170
12.228	-0.175
12.231	-0.170
12.234	-0.190
12.237	-0.215
12.240	-0.220
12.243	-0.230
12.246	-0.235
12.249	-0.240
12.252	-0.260
12.255	-0.280
12.258	-0.290
12.261	-0.300
12.264	-0.280
12.267	-0.285
12.270	-0.300
12.273	-0.310
12.276	-0.330
12.279	-0.335
12.282	-0.320
12.285	-0.310
12.288	-0.325
12.291	-0.325
12.294	-0.340
12.297	-0.340
12.300	-0.325
12.303	-0.310
12.306	-0.310
12.309	-0.330
12.312	-0.345
12.315	-0.340
12.318	-0.335
12.321	-0.335
12.324	-0.315
12.327	-0.325
12.330	-0.335
12.333	-0.340
12.336	-0.325
12.339	-0.300
12.342	-0.300
12.345	-0.320
12.348	-0.335
12.351	-0.320
12.354	-0.305
12.357	-0.305
12.360	-0.310
12.363	-0.315
12.366	-0.320
12.369	-0.315
12.372	-0.305
12.375	-0.300
12.378	-0.290
12.381	-0.295
12.384	-0.305
12.387	-0.285
12.390	-0.280
12.393	-0.280
12.396	-0.295
12.399	-0.315
12.402	-0.325
12.405	-0.315
12.408	-0.295
12.411	-0.285
12.414	-0.270
12.417	-0.280
12.420	-0.300
12.423	-0.295
12.426	-0.280
12.429	-0.270
12.432	-0.270
12.435	-0.285
12.438	-0.300
12.441	-0.295
12.444	-0.280
12.447	-0.275
12.450	-0.275
12.453	-0.280
12.456	-0.290
12.459	-0.275
12.462	-0.270
12.465	-0.265
12.468	-0.275
12.471	-0.290
12.474	-0.295
12.477	-0.295
12.480	-0.285
12.483	-0.270
12.486	-0.280
12.489	-0.290
12.492	-0.300
12.495	-0.285
12.498	-0.275
12.501	-0.275
12.504	-0.275
12.507	-0.285
12.510	-0.285
12.513	-0.295
12.516	-0.285
12.519	-0.275
12.522	-0.280
12.525	-0.280
12.528	-0.300
12.531	-0.290
12.534	-0.290
12.537	-0.280
12.540	-0.275
12.543	-0.290
12.546	-0.305
12.549	-0.275
12.552	-0.265
12.555	-0.260
12.558	-0.260
12.561	-0.275
12.564	-0.295
12.567	-0.285
12.570	-0.280
12.573	-0.265
12.576	-0.275
12.579	-0.295
12.582	-0.300
12.585	-0.285
12.588	-0.285
12.591	-0.275
12.594	-0.275
12.597	-0.280
12.600	-0.285
12.603	-0.285
12.606	-0.280
12.609	-0.290
12.612	-0.270
12.615	-0.285
12.618	-0.285
12.621	-0.285
12.624	-0.280
12.627	-0.275
12.630	-0.270
12.633	-0.285
12.636	-0.290
12.639	-0.280
12.642	-0.280
12.645	-0.260
12.648	-0.255
12.651	-0.270
12.654	-0.280
12.657	-0.270
12.660	-0.255
12.663	-0.250
12.666	-0.250
12.669	-0.250
12.672	-0.245
12.675	-0.245
12.678	-0.225
12.681	-0.200
12.684	-0.180
12.687	-0.170
12.690	-0.150
12.693	-0.120
12.696	-0.090
12.699	-0.090
12.702	-0.105
12.705	-0.120
12.708	-0.145
12.711	-0.155
12.714	-0.165
12.717	-0.160
12.720	-0.160
12.723	-0.160
12.726	-0.165
12.729	-0.160
12.732	-0.165
12.735	-0.190
12.738	-0.205
12.741	-0.230
12.744	-0.250
12.747	-0.260
12.750	-0.285
12.753	-0.270
12.756	-0.265
12.759	-0.265
12.762	-0.270
12.765	-0.260
12.768	-0.255
12.771	-0.265
12.774	-0.265
12.777	-0.290
12.780	-0.300
12.783	-0.290
12.786	-0.280
12.789	-0.275
12.792	-0.270
12.795	-0.280
12.798	-0.285
12.801	-0.295
12.804	-0.290
12.807	-0.275
12.810	-0.275
12.813	-0.295
12.816	-0.325
12.819	-0.340
12.822	-0.355
12.825	-0.320
12.828	-0.260
12.831	-0.130
12.834	0.030
12.837	0.285
12.840	0.600
12.843	0.950
12.846	1.190
12.849	1.215
12.852	0.995
12.855	0.670
12.858	0.375
12.861	0.170
12.864	0.055
12.867	0.020
12.870	0.005
12.873	-0.025
12.876	-0.050
12.879	-0.070
12.882	-0.105
12.885	-0.145
12.888	-0.210
12.891	-0.245
12.894	-0.275
12.897	-0.280
12.900	-0.285
12.903	-0.300
12.906	-0.320
12.909	-0.320
12.912	-0.330
12.915	-0.315
12.918	-0.320
12.921	-0.330
12.924	-0.345
12.927	-0.340
12.930	-0.335
12.933	-0.345
12.936	-0.340
12.939	-0.340
12.942	-0.355
12.945	-0.350
12.948	-0.355
12.951	-0.345
12.954	-0.350
12.957	-0.365
12.960	-0.360
12.963	-0.365
12.966	-0.345
12.969	-0.345
12.972	-0.340
12.975	-0.350
12.978	-0.365
12.981	-0.350
12.984	-0.350
12.987	-0.330
12.990	-0.330
12.993	-0.340
12.996	-0.350
12.999	-0.345
13.002	-0.350
13.005	-0.325
13.008	-0.320
13.011	-0.315
13.014	-0.345
13.017	-0.350
13.020	-0.340
13.023	-0.330
13.026	-0.330
13.029	-0.335
13.032	-0.335
13.035	-0.330
13.038	-0.330
13.041	-0.315
13.044	-0.315
13.047	-0.315
13.050	-0.315
13.053	-0.315
13.056	-0.295
13.059	-0.290
13.062	-0.305
13.065	-0.310
13.068	-0.315
13.071	-0.290
13.074	-0.270
13.077	-0.255
13.080	-0.260
13.083	-0.270
13.086	-0.290
13.089	-0.285
13.092	-0.260
13.095	-0.250
13.098	-0.250
13.101	-0.235
13.104	-0.245
13.107	-0.225
13.110	-0.215
13.113	-0.185
13.116	-0.185
13.119	-0.190
13.122	-0.200
13.125	-0.210
13.128	-0.190
13.131	-0.170
13.134	-0.175
13.137	-0.155
13.140	-0.150
13.143	-0.135
13.146	-0.120
13.149	-0.100
13.152	-0.085
13.155	-0.085
13.158	-0.090
13.161	-0.090
13.164	-0.075
13.167	-0.060
13.170	-0.050
13.173	-0.065
13.176	-0.085
13.179	-0.070
13.182	-0.055
13.185	-0.070
13.188	-0.075
13.191	-0.090
13.194	-0.105
13.197	-0.115
13.200	-0.115
13.203	-0.125
13.206	-0.130
13.209	-0.155
13.212	-0.170
13.215	-0.165
13.218	-0.175
13.221	-0.175
13.224	-0.195
13.227	-0.210
13.230	-0.225
13.233	-0.235
13.236	-0.230
13.239	-0.240
13.242	-0.220
13.245	-0.230
13.248	-0.235
13.251	-0.245
13.254	-0.230
13.257	-0.235
13.260	-0.235
13.263	-0.245
13.266	-0.265
13.269	-0.260
13.272	-0.250
13.275	-0.245
13.278	-0.260
13.281	-0.275
13.284	-0.285
13.287	-0.275
13.290	-0.260
13.293	-0.255
13.296	-0.250
13.299	-0.250
13.302	-0.250
13.305	-0.240
13.308	-0.240
13.311	-0.245
13.314	-0.265
13.317	-0.275
13.320	-0.285
13.323	-0.275
13.326	-0.265
13.329	-0.260
13.332	-0.260
13.335	-0.260
13.338	-0.265
13.341	-0.255
13.344	-0.250
13.347	-0.240
13.350	-0.250
13.353	-0.250
13.356	-0.245
13.359	-0.245
13.362	-0.235
13.365	-0.225
13.368	-0.220
13.371	-0.235
13.374	-0.260
13.377	-0.245
13.380	-0.235
13.383	-0.230
13.386	-0.225
13.389	-0.230
13.392	-0.235
13.395	-0.240
13.398	-0.225
13.401	-0.215
13.404	-0.220
13.407	-0.220
13.410	-0.240
13.413	-0.240
13.416	-0.250
13.419	-0.240
13.422	-0.250
13.425	-0.245
13.428	-0.255
13.431	-0.235
13.434	-0.240
13.437	-0.240
13.440	-0.240
13.443	-0.235
13.446	-0.240
13.449	-0.225
13.452	-0.215
13.455	-0.225
13.458	-0.235
13.461	-0.245
13.464	-0.255
13.467	-0.245
13.470	-0.230
13.473	-0.225
13.476	-0.215
13.479	-0.235
13.482	-0.240
13.485	-0.255
13.488	-0.245
13.491	-0.240
13.494	-0.245
13.497	-0.240
13.500	-0.250
13.503	-0.250
13.506	-0.240
13.509	-0.245
13.512	-0.245
13.515	-0.240
13.518	-0.250
13.521	-0.250
13.524	-0.250
13.527	-0.240
13.530	-0.235
13.533	-0.240
13.536	-0.240
13.539	-0.240
13.542	-0.235
13.545	-0.225
13.548	-0.215
13.551	-0.240
13.554	-0.235
13.557	-0.250
13.560	-0.245
13.563	-0.230
13.566	-0.235
13.569	-0.235
13.572	-0.245
13.575	-0.255
13.578	-0.240
13.581	-0.240
13.584	-0.215
13.587	-0.225
13.590	-0.245
13.593	-0.245
13.596	-0.235
13.599	-0.225
13.602	-0.225
13.605	-0.235
13.608	-0.250
13.611	-0.245
13.614	-0.240
13.617	-0.230
13.620	-0.215
13.623	-0.225
13.626	-0.220
13.629	-0.220
13.632	-0.210
13.635	-0.185
13.638	-0.180
13.641	-0.190
13.644	-0.190
13.647	-0.195
13.650	-0.195
13.653	-0.175
13.656	-0.175
13.659	-0.155
13.662	-0.140
13.665	-0.100
13.668	-0.060
13.671	-0.040
13.674	-0.060
13.677	-0.080
13.680	-0.095
13.683	-0.090
13.686	-0.085
13.689	-0.090
13.692	-0.110
13.695	-0.125
13.698	-0.125
13.701	-0.135
13.704	-0.135
13.707	-0.125
13.710	-0.140
13.713	-0.160
13.716	-0.175
13.719	-0.185
13.722	-0.205
13.725	-0.225
13.728	-0.230
13.731	-0.230
13.734	-0.245
13.737	-0.250
13.740	-0.255
13.743	-0.240
13.746	-0.240
13.749	-0.245
13.752	-0.265
13.755	-0.250
13.758	-0.250
13.761	-0.245
13.764	-0.245
13.767	-0.270
13.770	-0.280
13.773	-0.255
13.776	-0.270
13.779	-0.250
13.782	-0.255
13.785	-0.260
13.788	-0.265
13.791	-0.275
13.794	-0.290
13.797	-0.305
13.800	-0.325
13.803	-0.330
13.806	-0.315
13.809	-0.225
13.812	-0.045
13.815	0.185
13.818	0.465
13.821	0.795
13.824	1.085
13.827	1.155
13.830	0.995
13.833	0.705
13.836	0.395
13.839	0.150
13.842	0.050
13.845	0.055
13.848	0.035
13.851	0.000
13.854	-0.060
13.857	-0.115
13.860	-0.170
13.863	-0.225
13.866	-0.255
13.869	-0.270
13.872	-0.275
13.875	-0.305
13.878	-0.330
13.881	-0.350
13.884	-0.345
13.887	-0.345
13.890	-0.345
13.893	-0.345
13.896	-0.360
13.899	-0.355
13.902	-0.360
13.905	-0.340
13.908	-0.345
13.911	-0.350
13.914	-0.355
13.917	-0.375
13.920	-0.365
13.923	-0.355
13.926	-0.355
13.929	-0.360
13.932	-0.380
13.935	-0.380
13.938	-0.345
13.941	-0.345
13.944	-0.355
13.947	-0.360
13.950	-0.380
13.953	-0.370
13.956	-0.355
13.959	-0.345
13.962	-0.360
13.965	-0.365
13.968	-0.360
13.971	-0.360
13.974	-0.355
13.977	-0.335
13.980	-0.350
13.983	-0.365
13.986	-0.360
13.989	-0.360
13.992	-0.340
13.995	-0.330
13.998	-0.340
14.001	-0.350
14.004	-0.370
14.007	-0.360
14.010	-0.340
14.013	-0.315
14.016	-0.320
14.019	-0.335
14.022	-0.345
14.025	-0.340
14.028	-0.320
14.031	-0.315
14.034	-0.295
14.037	-0.305
14.040	-0.310
14.043	-0.310
14.046	-0.295
14.049	-0.290
14.052	-0.290
14.055	-0.285
14.058	-0.295
14.061	-0.285
14.064	-0.285
14.067	-0.265
14.070	-0.250
14.073	-0.230
14.076	-0.230
14.079	-0.220
14.082	-0.210
14.085	-0.195
14.088	-0.210
14.091	-0.200
14.094	-0.205
14.097	-0.190
14.100	-0.175
14.103	-0.165
14.106	-0.150
14.109	-0.145
14.112	-0.150
14.115	-0.145
14.118	-0.130
14.121	-0.100
14.124	-0.100
14.127	-0.105
14.130	-0.105
14.133	-0.105
14.136	-0.100
14.139	-0.085
14.142	-0.080
14.145	-0.090
14.148	-0.100
14.151	-0.115
14.154	-0.110
14.157	-0.105
14.160	-0.125
14.163	-0.140
14.166	-0.160
14.169	-0.175
14.172	-0.170
14.175	-0.175
14.178	-0.180
14.181	-0.180
14.184	-0.200
14.187	-0.220
14.190	-0.225
14.193	-0.220
14.196	-0.220
14.199	-0.220
14.202	-0.235
14.205	-0.255
14.208	-0.255
14.211	-0.255
14.214	-0.255
14.217	-0.260
14.220	-0.255
14.223	-0.275
14.226	-0.290
14.229	-0.290
14.232	-0.285
14.235	-0.280
14.238	-0.295
14.241	-0.295
14.244	-0.285
14.247	-0.265
14.250	-0.275
14.253	-0.275
14.256	-0.290
14.259	-0.305
14.262	-0.300
14.265	-0.265
14.268	-0.240
14.271	-0.260
14.274	-0.265
14.277	-0.275
14.280	-0.260
14.283	-0.255
14.286	-0.265
14.289	-0.260
14.292	-0.255
14.295	-0.265
14.298	-0.260
14.301	-0.235
14.304	-0.240
14.307	-0.245
14.310	-0.265
14.313	-0.250
14.316	-0.245
14.319	-0.245
14.322	-0.245
14.325	-0.245
14.328	-0.255
14.331	-0.245
14.334	-0.235
14.337	-0.225
14.340	-0.230
14.343	-0.240
14.346	-0.240
14.349	-0.245
14.352	-0.240
14.355	-0.230
14.358	-0.240
14.361	-0.235
14.364	-0.230
14.367	-0.255
14.370	-0.255
14.373	-0.220
14.376	-0.225
14.379	-0.235
14.382	-0.245
14.385	-0.255
14.388	-0.265
14.391	-0.245
14.394	-0.245
14.397	-0.245
14.400	-0.250
14.403	-0.240
14.406	-0.245
14.409	-0.255
14.412	-0.265
14.415	-0.250
14.418	-0.250
14.421	-0.255
14.424	-0.245
14.427	-0.240
14.430	-0.245
14.433	-0.245
14.436	-0.255
14.439	-0.265
14.442	-0.240
14.445	-0.230
14.448	-0.230
14.451	-0.245
14.454	-0.250
14.457	-0.255
14.460	-0.250
14.463	-0.235
14.466	-0.255
14.469	-0.260
14.472	-0.265
14.475	-0.275
14.478	-0.265
14.481	-0.260
14.484	-0.250
14.487	-0.255
14.490	-0.270
14.493	-0.290
14.496	-0.265
14.499	-0.255
14.502	-0.250
14.505	-0.270
14.508	-0.270
14.511	-0.265
14.514	-0.245
14.517	-0.240
14.520	-0.250
14.523	-0.265
14.526	-0.275
14.529	-0.280
14.532	-0.265
14.535	-0.250
14.538	-0.245
14.541	-0.245
14.544	-0.265
14.547	-0.270
14.550	-0.255
14.553	-0.245
14.556	-0.250
14.559	-0.260
14.562	-0.280
14.565	-0.285
14.568	-0.275
14.571	-0.265
14.574	-0.270
14.577	-0.265
14.580	-0.285
14.583	-0.265
14.586	-0.240
14.589	-0.245
14.592	-0.260
14.595	-0.275
14.598	-0.275
14.601	-0.280
14.604	-0.265
14.607	-0.255
14.610	-0.255
14.613	-0.240
14.616	-0.220
14.619	-0.190
14.622	-0.140
14.625	-0.100
14.628	-0.105
14.631	-0.120
14.634	-0.145
14.637	-0.160
14.640	-0.155
14.643	-0.160
14.646	-0.185
14.649	-0.190
14.652	-0.200
14.655	-0.210
14.658	-0.195
14.661	-0.180
14.664	-0.185
14.667	-0.195
14.670	-0.220
14.673	-0.250
14.676	-0.265
14.679	-0.260
14.682	-0.285
14.685	-0.300
14.688	-0.320
14.691	-0.330
14.694	-0.320
14.697	-0.305
14.700	-0.305
14.703	-0.305
14.706	-0.315
14.709	-0.325
14.712	-0.335
14.715	-0.335
14.718	-0.330
14.721	-0.340
14.724	-0.340
14.727	-0.360
14.730	-0.345
14.733	-0.345
14.736	-0.340
14.739	-0.355
14.742	-0.350
14.745	-0.355
14.748	-0.355
14.751	-0.360
14.754	-0.385
14.757	-0.385
14.760	-0.395
14.763	-0.355
14.766	-0.255
14.769	-0.075
14.772	0.105
14.775	0.335
14.778	0.635
14.781	0.895
14.784	0.950
14.787	0.755
14.790	0.430
14.793	0.150
14.796	-0.045
14.799	-0.160
14.802	-0.185
14.805	-0.185
14.808	-0.225
14.811	-0.240
14.814	-0.255
14.817	-0.305
14.820	-0.320
14.823	-0.360
14.826	-0.400
14.829	-0.420
14.832	-0.435
14.835	-0.440
14.838	-0.445
14.841	-0.445
14.844	-0.455
14.847	-0.485
14.850	-0.505
14.853	-0.500
14.856	-0.470
14.859	-0.465
14.862	-0.460
14.865	-0.480
14.868	-0.480
14.871	-0.475
14.874	-0.465
14.877	-0.460
14.880	-0.475
14.883	-0.490
14.886	-0.505
14.889	-0.505
14.892	-0.495
14.895	-0.480
14.898	-0.475
14.901	-0.510
14.904	-0.530
14.907	-0.520
14.910	-0.505
14.913	-0.500
14.916	-0.500
14.919	-0.510
14.922	-0.520
14.925	-0.515
14.928	-0.520
14.931	-0.535
14.934	-0.525
14.937	-0.520
14.940	-0.520
14.943	-0.525
14.946	-0.505
14.949	-0.485
14.952	-0.510
14.955	-0.550
14.958	-0.565
14.961	-0.550
14.964	-0.525
14.967	-0.500
14.970	-0.515
14.973	-0.525
14.976	-0.525
14.979	-0.520
14.982	-0.505
14.985	-0.480
14.988	-0.480
14.991	-0.495
14.994	-0.505
14.997	-0.500
15.000	-0.490
15.003	-0.475
15.006	-0.485
15.009	-0.500
15.012	-0.505
15.015	-0.485
15.018	-0.480
15.021	-0.470
15.024	-0.460
15.027	-0.460
15.030	-0.460
15.033	-0.450
15.036	-0.435
15.039	-0.425
15.042	-0.420
15.045	-0.405
15.048	-0.405
15.051	-0.385
15.054	-0.365
15.057	-0.355
15.060	-0.360
15.063	-0.360
15.066	-0.365
15.069	-0.365
15.072	-0.345
15.075	-0.320
15.078	-0.315
15.081	-0.330
15.084	-0.335
15.087	-0.350
15.090	-0.335
15.093	-0.305
15.096	-0.295
15.099	-0.295
15.102	-0.310
15.105	-0.310
15.108	-0.320
15.111	-0.320
15.114	-0.345
15.117	-0.345
15.120	-0.365
15.123	-0.370
15.126	-0.370
15.129	-0.375
15.132	-0.380
15.135	-0.390
15.138	-0.400
15.141	-0.425
15.144	-0.425
15.147	-0.420
15.150	-0.430
15.153	-0.435
15.156	-0.435
15.159	-0.445
15.162	-0.445
15.165	-0.450
15.168	-0.455
15.171	-0.465
15.174	-0.480
15.177	-0.485
15.180	-0.485
15.183	-0.470
15.186	-0.465
15.189	-0.475
15.192	-0.485
15.195	-0.485
15.198	-0.475
15.201	-0.470
15.204	-0.475
15.207	-0.465
15.210	-0.485
15.213	-0.485
15.216	-0.470
15.219	-0.455
15.222	-0.460
15.225	-0.465
15.228	-0.465
15.231	-0.475
15.234	-0.460
15.237	-0.440
15.240	-0.435
15.243	-0.450
15.246	-0.450
15.249	-0.440
15.252	-0.450
15.255	-0.435
15.258	-0.455
15.261	-0.440
15.264	-0.445
15.267	-0.440
15.270	-0.425
15.273	-0.420
15.276	-0.415
15.279	-0.420
15.282	-0.415
15.285	-0.405
15.288	-0.400
15.291	-0.395
15.294	-0.390
15.297	-0.405
15.300	-0.405
15.303	-0.400
15.306	-0.380
15.309	-0.370
15.312	-0.385
15.315	-0.370
15.318	-0.375
15.321	-0.375
15.324	-0.365
15.327	-0.350
15.330	-0.355
15.333	-0.345
15.336	-0.360
15.339	-0.365
15.342	-0.360
15.345	-0.340
15.348	-0.345
15.351	-0.340
15.354	-0.345
15.357	-0.360
15.360	-0.350
15.363	-0.345
15.366	-0.345
15.369	-0.335
15.372	-0.350
15.375	-0.355
15.378	-0.335
15.381	-0.335
15.384	-0.325
15.387	-0.320
15.390	-0.330
15.393	-0.325
15.396	-0.315
15.399	-0.305
15.402	-0.310
15.405	-0.310
15.408	-0.340
15.411	-0.350
15.414	-0.325
15.417	-0.315
15.420	-0.315
15.423	-0.340
15.426	-0.330
15.429	-0.330
15.432	-0.310
15.435	-0.310
15.438	-0.315
15.441	-0.330
15.444	-0.325
15.447	-0.315
15.450	-0.300
15.453	-0.300
15.456	-0.290
15.459	-0.305
15.462	-0.320
15.465	-0.320
15.468	-0.300
15.471	-0.280
15.474	-0.285
15.477	-0.295
15.480	-0.295
15.483	-0.285
15.486	-0.285
15.489	-0.275
15.492	-0.285
15.495	-0.295
15.498	-0.290
15.501	-0.295
15.504	-0.275
15.507	-0.265
15.510	-0.265
15.513	-0.260
15.516	-0.280
15.519	-0.265
15.522	-0.260
15.525	-0.250
15.528	-0.240
15.531	-0.240
15.534	-0.255
15.537	-0.260
15.540	-0.245
15.543	-0.220
15.546	-0.185
15.549	-0.165
15.552	-0.125
15.555	-0.110
15.558	-0.090
15.561	-0.095
15.564	-0.115
15.567	-0.120
15.570	-0.125
15.573	-0.125
15.576	-0.130
15.579	-0.130
15.582	-0.145
15.585	-0.160
15.588	-0.175
15.591	-0.185
15.594	-0.170
15.597	-0.145
15.600	-0.160
15.603	-0.180
15.606	-0.205
15.609	-0.225
15.612	-0.225
15.615	-0.220
15.618	-0.230
15.621	-0.225
15.624	-0.250
15.627	-0.265
15.630	-0.255
15.633	-0.245
15.636	-0.255
15.639	-0.265
15.642	-0.275
15.645	-0.255
15.648	-0.255
15.651	-0.240
15.654	-0.240
15.657	-0.255
15.660	-0.275
15.663	-0.270
15.666	-0.260
15.669	-0.240
15.672	-0.250
15.675	-0.260
15.678	-0.265
15.681	-0.255
15.684	-0.255
15.687	-0.285
15.690	-0.320
15.693	-0.350
15.696	-0.365
15.699	-0.320
15.702	-0.195
15.705	-0.015
15.708	0.220
15.711	0.490
15.714	0.810
15.717	1.100
15.720	1.250
15.723	1.155
15.726	0.890
15.729	0.605
15.732	0.345
15.735	0.130
15.738	0.045
15.741	0.040
15.744	0.010
15.747	-0.040
15.750	-0.085
15.753	-0.095
15.756	-0.115
15.759	-0.150
15.762	-0.190
15.765	-0.220
15.768	-0.250
15.771	-0.270
15.774	-0.260
15.777	-0.260
15.780	-0.285
15.783	-0.300
15.786	-0.330
15.789	-0.340
15.792	-0.325
15.795	-0.310
15.798	-0.330
15.801	-0.325
15.804	-0.340
15.807	-0.330
15.810	-0.325
15.813	-0.320
15.816	-0.320
15.819	-0.325
15.822	-0.325
15.825	-0.325
15.828	-0.315
15.831	-0.320
15.834	-0.325
15.837	-0.320
15.840	-0.335
15.843	-0.335
15.846	-0.330
15.849	-0.320
15.852	-0.315
15.855	-0.330
15.858	-0.335
15.861	-0.345
15.864	-0.320
15.867	-0.305
15.870	-0.320
15.873	-0.330
15.876	-0.340
15.879	-0.335
15.882	-0.335
15.885	-0.310
15.888	-0.310
15.891	-0.320
15.894	-0.335
15.897	-0.330
15.900	-0.315
15.903	-0.305
15.906	-0.300
15.909	-0.305
15.912	-0.315
15.915	-0.315
15.918	-0.310
15.921	-0.295
15.924	-0.280
15.927	-0.280
15.930	-0.290
15.933	-0.285
15.936	-0.265
15.939	-0.255
15.942	-0.260
15.945	-0.260
15.948	-0.265
15.951	-0.260
15.954	-0.245
15.957	-0.230
15.960	-0.230
15.963	-0.235
15.966	-0.225
15.969	-0.215
15.972	-0.195
15.975	-0.165
15.978	-0.170
15.981	-0.180
15.984	-0.190
15.987	-0.200
15.990	-0.180
15.993	-0.140
15.996	-0.120
15.999	-0.110
16.002	-0.115
16.005	-0.115
16.008	-0.095
16.011	-0.085
16.014	-0.080
16.017	-0.070
16.020	-0.065
16.023	-0.070
16.026	-0.070
16.029	-0.070
16.032	-0.065
16.035	-0.070
16.038	-0.060
16.041	-0.050
16.044	-0.040
16.047	-0.040
16.050	-0.070
16.053	-0.075
16.056	-0.080
16.059	-0.070
16.062	-0.075
16.065	-0.090
16.068	-0.125
16.071	-0.140
16.074	-0.160
16.077	-0.180
16.080	-0.170
16.083	-0.170
16.086	-0.165
16.089	-0.185
16.092	-0.200
16.095	-0.210
16.098	-0.205
16.101	-0.210
16.104	-0.220
16.107	-0.225
16.110	-0.235
16.113	-0.245
16.116	-0.245
16.119	-0.250
16.122	-0.245
16.125	-0.255
16.128	-0.270
16.131	-0.275
16.134	-0.265
16.137	-0.255
16.140	-0.265
16.143	-0.270
16.146	-0.280
16.149	-0.295
16.152	-0.280
16.155	-0.275
16.158	-0.275
16.161	-0.270
16.164	-0.270
16.167	-0.285
16.170	-0.270
16.173	-0.260
16.176	-0.265
16.179	-0.275
16.182	-0.285
16.185	-0.275
16.188	-0.250
16.191	-0.245
16.194	-0.245
16.197	-0.250
16.200	-0.260
16.203	-0.270
16.206	-0.260
16.209	-0.250
16.212	-0.260
16.215	-0.265
16.218	-0.270
16.221	-0.260
16.224	-0.255
16.227	-0.250
16.230	-0.255
16.233	-0.260
16.236	-0.260
16.239	-0.255
16.242	-0.235
16.245	-0.235
16.248	-0.235
16.251	-0.240
16.254	-0.245
16.257	-0.265
16.260	-0.245
16.263	-0.245
16.266	-0.235
16.269	-0.240
16.272	-0.245
16.275	-0.265
16.278	-0.250
16.281	-0.240
16.284	-0.250
16.287	-0.240
16.290	-0.240
16.293	-0.240
16.296	-0.225
16.299	-0.215
16.302	-0.215
16.305	-0.225
16.308	-0.240
16.311	-0.255
16.314	-0.230
16.317	-0.210
16.320	-0.210
16.323	-0.230
16.326	-0.245
16.329	-0.240
16.332	-0.235
16.335	-0.220
16.338	-0.225
16.341	-0.230
16.344	-0.245
16.347	-0.260
16.350	-0.245
16.353	-0.240
16.356	-0.235
16.359	-0.240
16.362	-0.245
16.365	-0.240
16.368	-0.230
16.371	-0.225
16.374	-0.220
16.377	-0.230
16.380	-0.255
16.383	-0.240
16.386	-0.230
16.389	-0.220
16.392	-0.240
16.395	-0.250
16.398	-0.245
16.401	-0.255
16.404	-0.250
16.407	-0.240
16.410	-0.235
16.413	-0.245
16.416	-0.245
16.419	-0.250
16.422	-0.245
16.425	-0.230
16.428	-0.240
16.431	-0.245
16.434	-0.250
16.437	-0.255
16.440	-0.245
16.443	-0.215
16.446	-0.230
16.449	-0.235
16.452	-0.250
16.455	-0.245
16.458	-0.240
16.461	-0.230
16.464	-0.235
16.467	-0.250
16.470	-0.275
16.473	-0.270
16.476	-0.265
16.479	-0.235
16.482	-0.240
16.485	-0.245
16.488	-0.245
16.491	-0.235
16.494	-0.230
16.497	-0.225
16.500	-0.230
16.503	-0.250
16.506	-0.240
16.509	-0.235
16.512	-0.230
16.515	-0.235
16.518	-0.225
16.521	-0.225
16.524	-0.225
16.527	-0.205
16.530	-0.165
16.533	-0.115
16.536	-0.090
16.539	-0.085
16.542	-0.100
16.545	-0.125
16.548	-0.125
16.551	-0.120
16.554	-0.120
16.557	-0.130
16.560	-0.150
16.563	-0.160
16.566	-0.155
16.569	-0.150
16.572	-0.155
16.575	-0.160
16.578	-0.175
16.581	-0.195
16.584	-0.190
16.587	-0.185
16.590	-0.190
16.593	-0.225
16.596	-0.250
16.599	-0.260
16.602	-0.260
16.605	-0.255
16.608	-0.265
16.611	-0.260
16.614	-0.265
16.617	-0.270
16.620	-0.275
16.623	-0.280
16.626	-0.285
16.629	-0.285
16.632	-0.290
16.635	-0.295
16.638	-0.285
16.641	-0.280
16.644	-0.285
16.647	-0.285
16.650	-0.300
16.653	-0.315
16.656	-0.300
16.659	-0.280
16.662	-0.280
16.665	-0.305
16.668	-0.325
16.671	-0.360
16.674	-0.385
16.677	-0.400
16.680	-0.405
16.683	-0.340
16.686	-0.210
16.689	-0.015
16.692	0.230
16.695	0.495
16.698	0.810
16.701	1.070
16.704	1.180
16.707	1.040
16.710	0.775
16.713	0.505
16.716	0.265
16.719	0.075
16.722	0.010
16.725	0.000
16.728	-0.025
16.731	-0.060
16.734	-0.100
16.737	-0.120
16.740	-0.165
16.743	-0.225
16.746	-0.265
16.749	-0.290
16.752	-0.325
16.755	-0.360
16.758	-0.375
16.761	-0.375
16.764	-0.385
16.767	-0.385
16.770	-0.390
16.773	-0.390
16.776	-0.405
16.779	-0.415
16.782	-0.420
16.785	-0.400
16.788	-0.395
16.791	-0.410
16.794	-0.410
16.797	-0.420
16.800	-0.410
16.803	-0.400
16.806	-0.395
16.809	-0.420
16.812	-0.420
16.815	-0.420
16.818	-0.395
16.821	-0.400
16.824	-0.390
16.827	-0.400
16.830	-0.410
16.833	-0.400
16.836	-0.390
16.839	-0.380
16.842	-0.370
16.845	-0.390
16.848	-0.405
16.851	-0.410
16.854	-0.415
16.857	-0.395
16.860	-0.400
16.863	-0.410
16.866	-0.395
16.869	-0.410
16.872	-0.400
16.875	-0.405
16.878	-0.405
16.881	-0.405
16.884	-0.405
16.887	-0.405
16.890	-0.390
16.893	-0.365
16.896	-0.365
16.899	-0.380
16.902	-0.370
16.905	-0.390
16.908	-0.400
16.911	-0.370
16.914	-0.375
16.917	-0.370
16.920	-0.365
16.923	-0.370
16.926	-0.370
16.929	-0.370
16.932	-0.340
16.935	-0.345
16.938	-0.340
16.941	-0.335
16.944	-0.320
16.947	-0.310
16.950	-0.305
16.953	-0.295
16.956	-0.295
16.959	-0.290
16.962	-0.285
16.965	-0.270
16.968	-0.255
16.971	-0.260
16.974	-0.260
16.977	-0.260
16.980	-0.250
16.983	-0.235
16.986	-0.225
16.989	-0.225
16.992	-0.210
16.995	-0.195
16.998	-0.170
17.001	-0.155
17.004	-0.150
17.007	-0.150
17.010	-0.160
17.013	-0.155
17.016	-0.145
17.019	-0.140
17.022	-0.125
17.025	-0.125
17.028	-0.125
17.031	-0.125
17.034	-0.130
17.037	-0.125
17.040	-0.110
17.043	-0.120
17.046	-0.145
17.049	-0.160
17.052	-0.145
17.055	-0.160
17.058	-0.165
17.061	-0.195
17.064	-0.205
17.067	-0.220
17.070	-0.220
17.073	-0.230
17.076	-0.225
17.079	-0.235
17.082	-0.255
17.085	-0.270
17.088	-0.285
17.091	-0.265
17.094	-0.285
17.097	-0.300
17.100	-0.315
17.103	-0.310
17.106	-0.310
17.109	-0.305
17.112	-0.310
17.115	-0.310
17.118	-0.330
17.121	-0.345
17.124	-0.330
17.127	-0.325
17.130	-0.330
17.133	-0.325
17.136	-0.330
17.139	-0.325
17.142	-0.320
17.145	-0.315
17.148	-0.310
17.151	-0.325
17.154	-0.325
17.157	-0.330
17.160	-0.310
17.163	-0.310
17.166	-0.310
17.169	-0.330
17.172	-0.330
17.175	-0.335
17.178	-0.330
17.181	-0.315
17.184	-0.320
17.187	-0.325
17.190	-0.335
17.193	-0.335
17.196	-0.320
17.199	-0.315
17.202	-0.305
17.205	-0.315
17.208	-0.320
17.211	-0.330
17.214	-0.330
17.217	-0.310
17.220	-0.300
17.223	-0.305
17.226	-0.320
17.229	-0.320
17.232	-0.310
17.235	-0.290
17.238	-0.285
17.241	-0.295
17.244	-0.315
17.247	-0.325
17.250	-0.320
17.253	-0.305
17.256	-0.305
17.259	-0.310
17.262	-0.320
17.265	-0.315
17.268	-0.320
17.271	-0.300
17.274	-0.285
17.277	-0.295
17.280	-0.310
17.283	-0.325
17.286	-0.320
17.289	-0.305
17.292	-0.295
17.295	-0.295
17.298	-0.305
17.301	-0.310
17.304	-0.310
17.307	-0.305
17.310	-0.315
17.313	-0.330
17.316	-0.330
17.319	-0.320
17.322	-0.305
17.325	-0.310
17.328	-0.305
17.331	-0.315
17.334	-0.340
17.337	-0.345
17.340	-0.310
17.343	-0.310
17.346	-0.310
17.349	-0.310
17.352	-0.320
17.355	-0.330
17.358	-0.315
17.361	-0.315
17.364	-0.310
17.367	-0.325
17.370	-0.320
17.373	-0.330
17.376	-0.340
17.379	-0.330
17.382	-0.325
17.385	-0.330
17.388	-0.335
17.391	-0.345
17.394	-0.330
17.397	-0.325
17.400	-0.335
17.403	-0.320
17.406	-0.345
17.409	-0.340
17.412	-0.325
17.415	-0.305
17.418	-0.310
17.421	-0.320
17.424	-0.335
17.427	-0.345
17.430	-0.340
17.433	-0.335
17.436	-0.310
17.439	-0.320
17.442	-0.335
17.445	-0.345
17.448	-0.340
17.451	-0.320
17.454	-0.315
17.457	-0.320
17.460	-0.320
17.463	-0.330
17.466	-0.315
17.469	-0.310
17.472	-0.300
17.475	-0.305
17.478	-0.305
17.481	-0.305
17.484	-0.290
17.487	-0.270
17.490	-0.270
17.493	-0.280
17.496	-0.275
17.499	-0.280
17.502	-0.255
17.505	-0.245
17.508	-0.240
17.511	-0.235
17.514	-0.200
17.517	-0.185
17.520	-0.145
17.523	-0.110
17.526	-0.105
17.529	-0.115
17.532	-0.140
17.535	-0.175
17.538	-0.185
17.541	-0.175
17.544	-0.180
17.547	-0.195
17.550	-0.215
17.553	-0.220
17.556	-0.220
17.559	-0.215
17.562	-0.220
17.565	-0.235
17.568	-0.250
17.571	-0.265
17.574	-0.265
17.577	-0.265
17.580	-0.275
17.583	-0.325
17.586	-0.355
17.589	-0.355
17.592	-0.345
17.595	-0.320
17.598	-0.330
17.601	-0.365
17.604	-0.385
17.607	-0.385
17.610	-0.370
17.613	-0.365
17.616	-0.360
17.619	-0.365
17.622	-0.370
17.625	-0.385
17.628	-0.385
17.631	-0.395
17.634	-0.405
17.637	-0.410
17.640	-0.400
17.643	-0.395
17.646	-0.405
17.649	-0.395
17.652	-0.405
17.655	-0.435
17.658	-0.440
17.661	-0.435
17.664	-0.435
17.667	-0.425
17.670	-0.430
17.673	-0.405
17.676	-0.285
17.679	-0.110
17.682	0.075
17.685	0.315
17.688	0.620
17.691	0.865
17.694	0.940
17.697	0.785
17.700	0.540
17.703	0.300
17.706	0.090
17.709	-0.100
17.712	-0.180
17.715	-0.175
17.718	-0.180
17.721	-0.210
17.724	-0.235
17.727	-0.275
17.730	-0.320
17.733	-0.370
17.736	-0.400
17.739	-0.430
17.742	-0.475
17.745	-0.500
17.748	-0.530
17.751	-0.535
17.754	-0.515
17.757	-0.505
17.760	-0.515
17.763	-0.535
17.766	-0.560
17.769	-0.550
17.772	-0.535
17.775	-0.515
17.778	-0.530
17.781	-0.545
17.784	-0.555
17.787	-0.555
17.790	-0.540
17.793	-0.545
17.796	-0.535
17.799	-0.535
17.802	-0.540
17.805	-0.555
17.808	-0.540
17.811	-0.540
17.814	-0.520
17.817	-0.525
17.820	-0.550
17.823	-0.555
17.826	-0.550
17.829	-0.530
17.832	-0.520
17.835	-0.505
17.838	-0.520
17.841	-0.550
17.844	-0.560
17.847	-0.545
17.850	-0.530
17.853	-0.535
17.856	-0.535
17.859	-0.550
17.862	-0.555
17.865	-0.540
17.868	-0.540
17.871	-0.540
17.874	-0.545
17.877	-0.550
17.880	-0.535
17.883	-0.530
17.886	-0.525
17.889	-0.505
17.892	-0.505
17.895	-0.525
17.898	-0.555
17.901	-0.540
17.904	-0.510
17.907	-0.495
17.910	-0.525
17.913	-0.520
17.916	-0.515
17.919	-0.500
17.922	-0.485
17.925	-0.490
17.928	-0.495
17.931	-0.495
17.934	-0.485
17.937	-0.470
17.940	-0.465
17.943	-0.475
17.946	-0.470
17.949	-0.470
17.952	-0.445
17.955	-0.435
17.958	-0.445
17.961	-0.460
17.964	-0.465
17.967	-0.440
17.970	-0.425
17.973	-0.400
17.976	-0.395
17.979	-0.395
17.982	-0.385
17.985	-0.400
17.988	-0.375
17.991	-0.360
17.994	-0.345
17.997	-0.345
18.000	-0.350
18.003	-0.350
18.006	-0.340
18.009	-0.325
18.012	-0.315
18.015	-0.315
18.018	-0.305
18.021	-0.320
18.024	-0.305
18.027	-0.300
18.030	-0.280
18.033	-0.280
18.036	-0.290
18.039	-0.305
18.042	-0.295
18.045	-0.290
18.048	-0.295
18.051	-0.310
18.054	-0.320
18.057	-0.330
18.060	-0.325
18.063	-0.330
18.066	-0.345
18.069	-0.365
18.072	-0.385
18.075	-0.400
18.078	-0.390
18.081	-0.385
18.084	-0.385
18.087	-0.395
18.090	-0.415
18.093	-0.430
18.096	-0.435
18.099	-0.430
18.102	-0.440
18.105	-0.430
18.108	-0.445
18.111	-0.455
18.114	-0.440
18.117	-0.425
18.120	-0.440
18.123	-0.455
18.126	-0.465
18.129	-0.470
18.132	-0.465
18.135	-0.445
18.138	-0.455
18.141	-0.450
18.144	-0.450
18.147	-0.450
18.150	-0.425
18.153	-0.430
18.156	-0.430
18.159	-0.425
18.162	-0.440
18.165	-0.450
18.168	-0.445
18.171	-0.440
18.174	-0.425
18.177	-0.420
18.180	-0.410
18.183	-0.420
18.186	-0.430
18.189	-0.410
18.192	-0.410
18.195	-0.405
18.198	-0.400
18.201	-0.405
18.204	-0.380
18.207	-0.385
18.210	-0.390
18.213	-0.390
18.216	-0.385
18.219	-0.385
18.222	-0.365
18.225	-0.365
18.228	-0.365
18.231	-0.380
18.234	-0.370
18.237	-0.365
18.240	-0.360
18.243	-0.365
18.246	-0.360
18.249	-0.365
18.252	-0.365
18.255	-0.360
18.258	-0.365
18.261	-0.345
18.264	-0.345
18.267	-0.360
18.270	-0.360
18.273	-0.355
18.276	-0.355
18.279	-0.345
18.282	-0.330
18.285	-0.330
18.288	-0.335
18.291	-0.345
18.294	-0.340
18.297	-0.335
18.300	-0.350
18.303	-0.355
18.306	-0.360
18.309	-0.350
18.312	-0.335
18.315	-0.345
18.318	-0.345
18.321	-0.355
18.324	-0.360
18.327	-0.360
18.330	-0.345
18.333	-0.345
18.336	-0.340
18.339	-0.350
18.342	-0.355
18.345	-0.360
18.348	-0.355
18.351	-0.340
18.354	-0.345
18.357	-0.340
18.360	-0.355
18.363	-0.345
18.366	-0.345
18.369	-0.325
18.372	-0.340
18.375	-0.350
18.378	-0.365
18.381	-0.355
18.384	-0.345
18.387	-0.335
18.390	-0.325
18.393	-0.335
18.396	-0.350
18.399	-0.365
18.402	-0.355
18.405	-0.340
18.408	-0.330
18.411	-0.330
18.414	-0.335
18.417	-0.345
18.420	-0.360
18.423	-0.345
18.426	-0.330
18.429	-0.325
18.432	-0.350
18.435	-0.345
18.438	-0.330
18.441	-0.320
18.444	-0.335
18.447	-0.325
18.450	-0.325
18.453	-0.330
18.456	-0.315
18.459	-0.305
18.462	-0.305
18.465	-0.295
18.468	-0.305
18.471	-0.305
18.474	-0.290
18.477	-0.280
18.480	-0.285
18.483	-0.285
18.486	-0.275
18.489	-0.250
18.492	-0.225
18.495	-0.200
18.498	-0.180
18.501	-0.135
18.504	-0.130
18.507	-0.160
18.510	-0.160
18.513	-0.170
18.516	-0.155
18.519	-0.165
18.522	-0.180
18.525	-0.200
18.528	-0.205
18.531	-0.200
18.534	-0.200
18.537	-0.210
18.540	-0.205
18.543	-0.210
18.546	-0.220
18.549	-0.225
18.552	-0.230
18.555	-0.250
18.558	-0.270
18.561	-0.290
18.564	-0.300
18.567	-0.295
18.570	-0.290
18.573	-0.295
18.576	-0.305
18.579	-0.315
18.582	-0.310
18.585	-0.305
18.588	-0.300
18.591	-0.310
18.594	-0.320
18.597	-0.320
18.600	-0.330
18.603	-0.290
18.606	-0.305
18.609	-0.315
18.612	-0.320
18.615	-0.320
18.618	-0.300
18.621	-0.300
18.624	-0.295
18.627	-0.300
18.630	-0.325
18.633	-0.350
18.636	-0.365
18.639	-0.385
18.642	-0.390
18.645	-0.360
18.648	-0.295
18.651	-0.120
18.654	0.100
18.657	0.335
18.660	0.630
18.663	0.940
18.666	1.135
18.669	1.110
18.672	0.900
18.675	0.630
18.678	0.385
18.681	0.160
18.684	0.020
18.687	-0.015
18.690	-0.030
18.693	-0.075
18.696	-0.105
18.699	-0.130
18.702	-0.170
18.705	-0.205
18.708	-0.220
18.711	-0.255
18.714	-0.285
18.717	-0.325
18.720	-0.310
18.723	-0.325
18.726	-0.330
18.729	-0.320
18.732	-0.335
18.735	-0.330
18.738	-0.340
18.741	-0.360
18.744	-0.350
18.747	-0.345
18.750	-0.335
18.753	-0.335
18.756	-0.335
18.759	-0.330
18.762	-0.335
18.765	-0.335
18.768	-0.335
18.771	-0.335
18.774	-0.340
18.777	-0.340
18.780	-0.355
18.783	-0.350
18.786	-0.330
18.789	-0.330
18.792	-0.325
18.795	-0.330
18.798	-0.340
18.801	-0.325
18.804	-0.325
18.807	-0.325
18.810	-0.345
18.813	-0.360
18.816	-0.340
18.819	-0.325
18.822	-0.320
18.825	-0.320
18.828	-0.320
18.831	-0.320
18.834	-0.325
18.837	-0.320
18.840	-0.315
18.843	-0.310
18.846	-0.315
18.849	-0.330
18.852	-0.325
18.855	-0.305
18.858	-0.295
18.861	-0.300
18.864	-0.315
18.867	-0.315
18.870	-0.295
18.873	-0.285
18.876	-0.290
18.879	-0.295
18.882	-0.290
18.885	-0.295
18.888	-0.280
18.891	-0.250
18.894	-0.250
18.897	-0.250
18.900	-0.265
18.903	-0.260
18.906	-0.235
18.909	-0.230
18.912	-0.220
18.915	-0.205
18.918	-0.215
18.921	-0.205
18.924	-0.200
18.927	-0.185
18.930	-0.180
18.933	-0.165
18.936	-0.155
18.939	-0.160
18.942	-0.135
18.945	-0.140
18.948	-0.130
18.951	-0.120
18.954	-0.115
18.957	-0.120
18.960	-0.090
18.963	-0.075
18.966	-0.060
18.969	-0.050
18.972	-0.070
18.975	-0.065
18.978	-0.055
18.981	-0.045
18.984	-0.030
18.987	-0.030
18.990	-0.035
18.993	-0.040
18.996	-0.030
18.999	-0.030
19.002	-0.030
19.005	-0.035
19.008	-0.065
19.011	-0.065
19.014	-0.060
19.017	-0.045
19.020	-0.050
19.023	-0.075
19.026	-0.100
19.029	-0.125
19.032	-0.125
19.035	-0.125
19.038	-0.110
19.041	-0.115
19.044	-0.135
19.047	-0.165
19.050	-0.200
19.053	-0.225
19.056	-0.245
19.059	-0.235
19.062	-0.225
19.065	-0.220
19.068	-0.225
19.071	-0.225
19.074	-0.220
19.077	-0.225
19.080	-0.215
19.083	-0.230
19.086	-0.220
19.089	-0.215
19.092	-0.215
19.095	-0.225
19.098	-0.225
19.101	-0.225
19.104	-0.220
19.107	-0.220
19.110	-0.225
19.113	-0.230
19.116	-0.230
19.119	-0.230
19.122	-0.225
19.125	-0.220
19.128	-0.210
19.131	-0.220
19.134	-0.220
19.137	-0.225
19.140	-0.200
19.143	-0.195
19.146	-0.180
19.149	-0.190
19.152	-0.215
19.155	-0.220
19.158	-0.215
19.161	-0.195
19.164	-0.200
19.167	-0.195
19.170	-0.200
19.173	-0.195
19.176	-0.205
19.179	-0.200
19.182	-0.190
19.185	-0.200
19.188	-0.200
19.191	-0.210
19.194	-0.205
19.197	-0.205
19.200	-0.200
19.203	-0.195
19.206	-0.180
19.209	-0.195
19.212	-0.200
19.215	-0.180
19.218	-0.165
19.221	-0.175
19.224	-0.180
19.227	-0.200
19.230	-0.200
19.233	-0.195
19.236	-0.195
19.239	-0.195
19.242	-0.215
19.245	-0.215
19.248	-0.205
19.251	-0.205
19.254	-0.205
19.257	-0.210
19.260	-0.210
19.263	-0.220
19.266	-0.210
19.269	-0.210
19.272	-0.200
19.275	-0.200
19.278	-0.215
19.281	-0.230
19.284	-0.220
19.287	-0.215
19.290	-0.225
19.293	-0.215
19.296	-0.215
19.299	-0.220
19.302	-0.205
19.305	-0.195
19.308	-0.195
19.311	-0.205
19.314	-0.220
19.317	-0.230
19.320	-0.215
19.323	-0.200
19.326	-0.205
19.329	-0.220
19.332	-0.215
19.335	-0.215
19.338	-0.205
19.341	-0.200
19.344	-0.205
19.347	-0.200
19.350	-0.205
19.353	-0.225
19.356	-0.220
19.359	-0.220
19.362	-0.215
19.365	-0.220
19.368	-0.230
19.371	-0.240
19.374	-0.225
19.377	-0.205
19.380	-0.205
19.383	-0.195
19.386	-0.195
19.389	-0.200
19.392	-0.195
19.395	-0.190
19.398	-0.170
19.401	-0.165
19.404	-0.170
19.407	-0.180
19.410	-0.165
19.413	-0.155
19.416	-0.150
19.419	-0.140
19.422	-0.120
19.425	-0.115
19.428	-0.060
19.431	-0.030
19.434	-0.030
19.437	-0.060
19.440	-0.085
19.443	-0.080
19.446	-0.065
19.449	-0.075
19.452	-0.090
19.455	-0.105
19.458	-0.110
19.461	-0.115
19.464	-0.110
19.467	-0.115
19.470	-0.120
19.473	-0.120
19.476	-0.145
19.479	-0.175
19.482	-0.180
19.485	-0.205
19.488	-0.210
19.491	-0.215
19.494	-0.215
19.497	-0.220
19.500	-0.215
19.503	-0.230
19.506	-0.230
19.509	-0.230
19.512	-0.250
19.515	-0.255
19.518	-0.255
19.521	-0.245
19.524	-0.235
19.527	-0.235
19.530	-0.245
19.533	-0.265
19.536	-0.265
19.539	-0.260
19.542	-0.250
19.545	-0.250
19.548	-0.265
19.551	-0.305
19.554	-0.325
19.557	-0.345
19.560	-0.330
19.563	-0.280
19.566	-0.150
19.569	0.050
19.572	0.315
19.575	0.630
19.578	0.980
19.581	1.210
19.584	1.200
19.587	0.920
19.590	0.605
19.593	0.355
19.596	0.155
19.599	0.075
19.602	0.070
19.605	0.050
19.608	0.015
19.611	-0.015
19.614	-0.065
19.617	-0.115
19.620	-0.170
19.623	-0.240
19.626	-0.265
19.629	-0.290
19.632	-0.290
19.635	-0.290
19.638	-0.300
19.641	-0.325
19.644	-0.320
19.647	-0.315
19.650	-0.315
19.653	-0.315
19.656	-0.330
19.659	-0.340
19.662	-0.340
19.665	-0.340
19.668	-0.330
19.671	-0.335
19.674	-0.325
19.677	-0.345
19.680	-0.335
19.683	-0.335
19.686	-0.340
19.689	-0.335
19.692	-0.345
19.695	-0.345
19.698	-0.325
19.701	-0.305
19.704	-0.310
19.707	-0.305
19.710	-0.310
19.713	-0.310
19.716	-0.320
19.719	-0.330
19.722	-0.335
19.725	-0.330
19.728	-0.315
19.731	-0.335
19.734	-0.345
19.737	-0.350
19.740	-0.340
19.743	-0.340
19.746	-0.340
19.749	-0.355
19.752	-0.345
19.755	-0.340
19.758	-0.335
19.761	-0.315
19.764	-0.330
19.767	-0.335
19.770	-0.325
19.773	-0.330
19.776	-0.310
19.779	-0.305
19.782	-0.305
19.785	-0.305
19.788	-0.315
19.791	-0.300
19.794	-0.285
19.797	-0.290
19.800	-0.290
19.803	-0.290
19.806	-0.270
19.809	-0.260
19.812	-0.255
19.815	-0.260
19.818	-0.265
19.821	-0.255
19.824	-0.240
19.827	-0.210
19.830	-0.215
19.833	-0.210
19.836	-0.210
19.839	-0.205
19.842	-0.180
19.845	-0.160
19.848	-0.145
19.851	-0.135
19.854	-0.165
19.857	-0.150
19.860	-0.125
19.863	-0.115
19.866	-0.080
19.869	-0.080
19.872	-0.085
19.875	-0.095
19.878	-0.095
19.881	-0.065
19.884	-0.060
19.887	-0.050
19.890	-0.045
19.893	-0.050
19.896	-0.035
19.899	-0.030
19.902	-0.040
19.905	-0.040
19.908	-0.050
19.911	-0.065
19.914	-0.075
19.917	-0.070
19.920	-0.060
19.923	-0.070
19.926	-0.085
19.929	-0.105
19.932	-0.115
19.935	-0.125
19.938	-0.120
19.941	-0.140
19.944	-0.175
19.947	-0.180
19.950	-0.175
19.953	-0.175
19.956	-0.165
19.959	-0.190
19.962	-0.205
19.965	-0.225
19.968	-0.225
19.971	-0.215
19.974	-0.215
19.977	-0.225
19.980	-0.220
19.983	-0.235
19.986	-0.235
19.989	-0.235
19.992	-0.240
19.995	-0.235
19.998	-0.235
20.001	-0.245
20.004	-0.235
20.007	-0.230
20.010	-0.225
20.013	-0.240
20.016	-0.250
20.019	-0.250
20.022	-0.240
20.025	-0.230
20.028	-0.235
20.031	-0.245
20.034	-0.240
20.037	-0.240
20.040	-0.230
20.043	-0.215
20.046	-0.225
20.049	-0.220
20.052	-0.230
20.055	-0.235
20.058	-0.235
20.061	-0.215
20.064	-0.205
20.067	-0.210
20.070	-0.210
20.073	-0.215
20.076	-0.220
20.079	-0.220
20.082	-0.215
20.085	-0.225
20.088	-0.230
20.091	-0.235
20.094	-0.230
20.097	-0.230
20.100	-0.220
20.103	-0.225
20.106	-0.225
20.109	-0.235
20.112	-0.225
20.115	-0.215
20.118	-0.215
20.121	-0.220
20.124	-0.240
20.127	-0.240
20.130	-0.230
20.133	-0.220
20.136	-0.220
20.139	-0.225
20.142	-0.220
20.145	-0.230
20.148	-0.230
20.151	-0.225
20.154	-0.230
20.157	-0.225
20.160	-0.230
20.163	-0.235
20.166	-0.225
20.169	-0.230
20.172	-0.225
20.175	-0.225
20.178	-0.215
20.181	-0.220
20.184	-0.220
20.187	-0.220
20.190	-0.215
20.193	-0.225
20.196	-0.215
20.199	-0.220
20.202	-0.220
20.205	-0.210
20.208	-0.205
20.211	-0.205
20.214	-0.200
20.217	-0.210
20.220	-0.220
20.223	-0.220
20.226	-0.215
20.229	-0.230
20.232	-0.240
20.235	-0.250
20.238	-0.240
20.241	-0.225
20.244	-0.220
20.247	-0.215
20.250	-0.220
20.253	-0.245
20.256	-0.245
20.259	-0.230
20.262	-0.235
20.265	-0.235
20.268	-0.235
20.271	-0.240
20.274	-0.225
20.277	-0.205
20.280	-0.210
20.283	-0.245
20.286	-0.240
20.289	-0.250
20.292	-0.225
20.295	-0.210
20.298	-0.205
20.301	-0.220
20.304	-0.220
20.307	-0.240
20.310	-0.225
20.313	-0.200
20.316	-0.185
20.319	-0.200
20.322	-0.205
20.325	-0.195
20.328	-0.165
20.331	-0.135
20.334	-0.105
20.337	-0.075
20.340	-0.065
20.343	-0.085
20.346	-0.105
20.349	-0.100
20.352	-0.095
20.355	-0.115
20.358	-0.125
20.361	-0.145
20.364	-0.150
20.367	-0.150
20.370	-0.150
20.373	-0.155
20.376	-0.160
20.379	-0.180
20.382	-0.200
20.385	-0.210
20.388	-0.225
20.391	-0.225
20.394	-0.230
20.397	-0.240
20.400	-0.255
20.403	-0.260
20.406	-0.265
20.409	-0.265
20.412	-0.280
20.415	-0.285
20.418	-0.285
20.421	-0.285
20.424	-0.275
20.427	-0.290
20.430	-0.295
20.433	-0.300
20.436	-0.280
20.439	-0.285
20.442	-0.275
20.445	-0.280
20.448	-0.285
20.451	-0.300
20.454	-0.305
20.457	-0.320
20.460	-0.345
20.463	-0.360
20.466	-0.365
20.469	-0.320
20.472	-0.145
20.475	0.045
20.478	0.280
20.481	0.580
20.484	0.920
20.487	1.160
20.490	1.180
20.493	0.955
20.496	0.650
20.499	0.360
20.502	0.135
20.505	0.025
20.508	0.025
20.511	0.005
20.514	-0.015
20.517	-0.055
20.520	-0.100
20.523	-0.150
20.526	-0.185
20.529	-0.225
20.532	-0.245
20.535	-0.300
20.538	-0.330
20.541	-0.340
20.544	-0.350
20.547	-0.345
20.550	-0.330
20.553	-0.340
20.556	-0.350
20.559	-0.370
20.562	-0.370
20.565	-0.370
20.568	-0.350
20.571	-0.365
20.574	-0.365
20.577	-0.375
20.580	-0.385
20.583	-0.375
20.586	-0.355
20.589	-0.360
20.592	-0.375
20.595	-0.390
20.598	-0.390
20.601	-0.380
20.604	-0.365
20.607	-0.375
20.610	-0.370
20.613	-0.380
20.616	-0.365
20.619	-0.375
20.622	-0.360
20.625	-0.365
20.628	-0.375
20.631	-0.380
20.634	-0.370
20.637	-0.370
20.640	-0.365
20.643	-0.380
20.646	-0.375
20.649	-0.385
20.652	-0.370
20.655	-0.365
20.658	-0.355
20.661	-0.365
20.664	-0.365
20.667	-0.395
20.670	-0.375
20.673	-0.370
20.676	-0.345
20.679	-0.350
20.682	-0.355
20.685	-0.370
20.688	-0.355
20.691	-0.350
20.694	-0.335
20.697	-0.335
20.700	-0.345
20.703	-0.345
20.706	-0.330
20.709	-0.330
20.712	-0.320
20.715	-0.325
20.718	-0.310
20.721	-0.310
20.724	-0.300
20.727	-0.290
20.730	-0.275
20.733	-0.270
20.736	-0.275
20.739	-0.280
20.742	-0.260
20.745	-0.250
20.748	-0.225
20.751	-0.230
20.754	-0.230
20.757	-0.230
20.760	-0.210
20.763	-0.195
20.766	-0.180
20.769	-0.155
20.772	-0.145
20.775	-0.145
20.778	-0.140
20.781	-0.145
20.784	-0.145
20.787	-0.140
20.790	-0.130
20.793	-0.130
20.796	-0.130
20.799	-0.115
20.802	-0.105
20.805	-0.110
20.808	-0.105
20.811	-0.125
20.814	-0.130
20.817	-0.115
20.820	-0.110
20.823	-0.105
20.826	-0.120
20.829	-0.140
20.832	-0.160
20.835	-0.160
20.838	-0.160
20.841	-0.175
20.844	-0.205
20.847	-0.215
20.850	-0.220
20.853	-0.215
20.856	-0.235
20.859	-0.250
20.862	-0.250
20.865	-0.285
20.868	-0.280
20.871	-0.270
20.874	-0.265
20.877	-0.275
20.880	-0.285
20.883	-0.290
20.886	-0.290
20.889	-0.290
20.892	-0.285
20.895	-0.295
20.898	-0.305
20.901	-0.315
20.904	-0.315
20.907	-0.305
20.910	-0.290
20.913	-0.290
20.916	-0.300
20.919	-0.310
20.922	-0.310
20.925	-0.295
20.928	-0.295
20.931	-0.300
20.934	-0.305
20.937	-0.310
20.940	-0.300
20.943	-0.300
20.946	-0.290
20.949	-0.290
20.952	-0.305
20.955	-0.310
20.958	-0.310
20.961	-0.295
20.964	-0.280
20.967	-0.285
20.970	-0.285
20.973	-0.305
20.976	-0.310
20.979	-0.300
20.982	-0.285
20.985	-0.315
20.988	-0.315
20.991	-0.315
20.994	-0.315
20.997	-0.320
21.000	-0.300
21.003	-0.290
21.006	-0.295
21.009	-0.310
21.012	-0.305
21.015	-0.305
21.018	-0.290
21.021	-0.305
21.024	-0.310
21.027	-0.315
21.030	-0.315
21.033	-0.315
21.036	-0.295
21.039	-0.290
21.042	-0.290
21.045	-0.305
21.048	-0.310
21.051	-0.310
21.054	-0.305
21.057	-0.305
21.060	-0.310
21.063	-0.325
21.066	-0.325
21.069	-0.310
21.072	-0.300
21.075	-0.295
21.078	-0.305
21.081	-0.325
21.084	-0.320
21.087	-0.300
21.090	-0.300
21.093	-0.300
21.096	-0.315
21.099	-0.310
21.102	-0.315
21.105	-0.310
21.108	-0.300
21.111	-0.295
21.114	-0.310
21.117	-0.330
21.120	-0.320
21.123	-0.310
21.126	-0.300
21.129	-0.305
21.132	-0.320
21.135	-0.315
21.138	-0.315
21.141	-0.320
21.144	-0.305
21.147	-0.295
21.150	-0.305
21.153	-0.320
21.156	-0.315
21.159	-0.310
21.162	-0.300
21.165	-0.295
21.168	-0.310
21.171	-0.335
21.174	-0.330
21.177	-0.325
21.180	-0.315
21.183	-0.320
21.186	-0.330
21.189	-0.340
21.192	-0.340
21.195	-0.315
21.198	-0.300
21.201	-0.310
21.204	-0.310
21.207	-0.315
21.210	-0.305
21.213	-0.305
21.216	-0.300
21.219	-0.305
21.222	-0.300
21.225	-0.310
21.228	-0.290
21.231	-0.275
21.234	-0.275
21.237	-0.280
21.240	-0.285
21.243	-0.305
21.246	-0.295
21.249	-0.275
21.252	-0.250
21.255	-0.225
21.258	-0.210
21.261	-0.175
21.264	-0.155
21.267	-0.150
21.270	-0.160
21.273	-0.170
21.276	-0.185
21.279	-0.190
21.282	-0.200
21.285	-0.200
21.288	-0.205
21.291	-0.210
21.294	-0.230
21.297	-0.230
21.300	-0.235
21.303	-0.235
21.306	-0.240
21.309	-0.260
21.312	-0.260
21.315	-0.275
21.318	-0.295
21.321	-0.315
21.324	-0.320
21.327	-0.335
21.330	-0.340
21.333	-0.350
21.336	-0.340
21.339	-0.330
21.342	-0.335
21.345	-0.340
21.348	-0.345
21.351	-0.365
21.354	-0.360
21.357	-0.355
21.360	-0.355
21.363	-0.355
21.366	-0.385
21.369	-0.380
21.372	-0.390
21.375	-0.370
21.378	-0.360
21.381	-0.360
21.384	-0.370
21.387	-0.370
21.390	-0.385
21.393	-0.395
21.396	-0.420
21.399	-0.440
21.402	-0.455
21.405	-0.445
21.408	-0.325
21.411	-0.140
21.414	0.085
21.417	0.345
21.420	0.655
21.423	0.935
21.426	1.060
21.429	0.955
21.432	0.680
21.435	0.380
21.438	0.120
21.441	-0.045
21.444	-0.080
21.447	-0.085
21.450	-0.110
21.453	-0.150
21.456	-0.185
21.459	-0.235
21.462	-0.285
21.465	-0.320
21.468	-0.360
21.471	-0.390
21.474	-0.415
21.477	-0.435
21.480	-0.445
21.483	-0.435
21.486	-0.435
21.489	-0.455
21.492	-0.465
21.495	-0.470
21.498	-0.470
21.501	-0.470
21.504	-0.475
21.507	-0.480
21.510	-0.470
21.513	-0.485
21.516	-0.485
21.519	-0.480
21.522	-0.470
21.525	-0.470
21.528	-0.475
21.531	-0.470
21.534	-0.475
21.537	-0.470
21.540	-0.470
21.543	-0.465
21.546	-0.475
21.549	-0.480
21.552	-0.485
21.555	-0.485
21.558	-0.465
21.561	-0.475
21.564	-0.490
21.567	-0.490
21.570	-0.490
21.573	-0.485
21.576	-0.470
21.579	-0.435
21.582	-0.455
21.585	-0.460
21.588	-0.475
21.591	-0.470
21.594	-0.465
21.597	-0.475
21.600	-0.485
21.603	-0.490
21.606	-0.480
21.609	-0.465
21.612	-0.450
21.615	-0.465
21.618	-0.485
21.621	-0.490
21.624	-0.455
21.627	-0.455
21.630	-0.440
21.633	-0.440
21.636	-0.450
21.639	-0.455
21.642	-0.430
21.645	-0.440
21.648	-0.440
21.651	-0.420
21.654	-0.435
21.657	-0.435
21.660	-0.430
21.663	-0.405
21.666	-0.395
21.669	-0.395
21.672	-0.395
21.675	-0.405
21.678	-0.385
21.681	-0.375
21.684	-0.355
21.687	-0.360
21.690	-0.355
21.693	-0.360
21.696	-0.345
21.699	-0.325
21.702	-0.310
21.705	-0.305
21.708	-0.300
21.711	-0.300
21.714	-0.290
21.717	-0.270
21.720	-0.260
21.723	-0.250
21.726	-0.255
21.729	-0.260
21.732	-0.255
21.735	-0.235
21.738	-0.215
21.741	-0.215
21.744	-0.225
21.747	-0.220
21.750	-0.220
21.753	-0.205
21.756	-0.205
21.759	-0.200
21.762	-0.210
21.765	-0.220
21.768	-0.210
21.771	-0.220
21.774	-0.225
21.777	-0.240
21.780	-0.245
21.783	-0.265
21.786	-0.275
21.789	-0.275
21.792	-0.285
21.795	-0.300
21.798	-0.305
21.801	-0.335
21.804	-0.335
21.807	-0.335
21.810	-0.335
21.813	-0.350
21.816	-0.365
21.819	-0.370
21.822	-0.380
21.825	-0.365
21.828	-0.370
21.831	-0.375
21.834	-0.400
21.837	-0.405
21.840	-0.405
21.843	-0.405
21.846	-0.395
21.849	-0.390
21.852	-0.390
21.855	-0.405
21.858	-0.395
21.861	-0.400
21.864	-0.380
21.867	-0.385
21.870	-0.395
21.873	-0.410
21.876	-0.410
21.879	-0.390
21.882	-0.365
21.885	-0.380
21.888	-0.395
21.891	-0.400
21.894	-0.395
21.897	-0.380
21.900	-0.370
21.903	-0.385
21.906	-0.390
21.909	-0.410
21.912	-0.405
21.915	-0.385
21.918	-0.375
21.921	-0.375
21.924	-0.385
21.927	-0.415
21.930	-0.395
21.933	-0.390
21.936	-0.380
21.939	-0.370
21.942	-0.365
21.945	-0.390
21.948	-0.375
21.951	-0.375
21.954	-0.370
21.957	-0.375
21.960	-0.380
21.963	-0.380
21.966	-0.375
21.969	-0.365
21.972	-0.365
21.975	-0.370
21.978	-0.380
21.981	-0.375
21.984	-0.385
21.987	-0.370
21.990	-0.365
21.993	-0.370
21.996	-0.380
21.999	-0.400
22.002	-0.395
22.005	-0.385
22.008	-0.375
22.011	-0.380
22.014	-0.395
22.017	-0.400
22.020	-0.390
22.023	-0.375
22.026	-0.370
22.029	-0.385
22.032	-0.375
22.035	-0.385
22.038	-0.380
22.041	-0.370
22.044	-0.365
22.047	-0.375
22.050	-0.395
22.053	-0.400
22.056	-0.400
22.059	-0.400
22.062	-0.385
22.065	-0.380
22.068	-0.370
22.071	-0.385
22.074	-0.390
22.077	-0.380
22.080	-0.380
22.083	-0.385
22.086	-0.395
22.089	-0.410
22.092	-0.395
22.095	-0.395
22.098	-0.385
22.101	-0.405
22.104	-0.405
22.107	-0.410
22.110	-0.400
22.113	-0.385
22.116	-0.380
22.119	-0.375
22.122	-0.385
22.125	-0.400
22.128	-0.395
22.131	-0.395
22.134	-0.390
22.137	-0.390
22.140	-0.395
22.143	-0.405
22.146	-0.405
22.149	-0.390
22.152	-0.375
22.155	-0.375
22.158	-0.395
22.161	-0.405
22.164	-0.400
22.167	-0.395
22.170	-0.390
22.173	-0.395
22.176	-0.405
22.179	-0.415
22.182	-0.410
22.185	-0.400
22.188	-0.385
22.191	-0.380
22.194	-0.380
22.197	-0.385
22.200	-0.385
22.203	-0.370
22.206	-0.350
22.209	-0.335
22.212	-0.325
22.215	-0.310
22.218	-0.290
22.221	-0.270
22.224	-0.230
22.227	-0.220
22.230	-0.200
22.233	-0.210
22.236	-0.210
22.239	-0.225
22.242	-0.215
22.245	-0.220
22.248	-0.240
22.251	-0.255
22.254	-0.255
22.257	-0.255
22.260	-0.250
22.263	-0.265
22.266	-0.285
22.269	-0.285
22.272	-0.290
22.275	-0.300
22.278	-0.305
22.281	-0.320
22.284	-0.345
22.287	-0.365
22.290	-0.385
22.293	-0.380
22.296	-0.390
22.299	-0.390
22.302	-0.400
22.305	-0.400
22.308	-0.405
22.311	-0.385
22.314	-0.380
22.317	-0.385
22.320	-0.400
22.323	-0.420
22.326	-0.400
22.329	-0.405
22.332	-0.400
22.335	-0.400
22.338	-0.415
22.341	-0.420
22.344	-0.425
22.347	-0.425
22.350	-0.425
22.353	-0.435
22.356	-0.465
22.359	-0.485
22.362	-0.505
22.365	-0.490
22.368	-0.385
22.371	-0.215
22.374	-0.005
22.377	0.235
22.380	0.550
22.383	0.840
22.386	0.950
22.389	0.840
22.392	0.565
22.395	0.300
22.398	0.075
22.401	-0.085
22.404	-0.140
22.407	-0.145
22.410	-0.190
22.413	-0.245
22.416	-0.270
22.419	-0.290
22.422	-0.305
22.425	-0.325
22.428	-0.365
22.431	-0.425
22.434	-0.460
22.437	-0.465
22.440	-0.450
22.443	-0.475
22.446	-0.490
22.449	-0.520
22.452	-0.520
22.455	-0.520
22.458	-0.510
22.461	-0.510
22.464	-0.520
22.467	-0.525
22.470	-0.535
22.473	-0.525
22.476	-0.520
22.479	-0.525
22.482	-0.530
22.485	-0.535
22.488	-0.525
22.491	-0.515
22.494	-0.510
22.497	-0.525
22.500	-0.525
22.503	-0.530
22.506	-0.510
22.509	-0.500
22.512	-0.480
22.515	-0.490
22.518	-0.515
22.521	-0.515
22.524	-0.500
22.527	-0.490
22.530	-0.480
22.533	-0.475
22.536	-0.490
22.539	-0.505
22.542	-0.505
22.545	-0.490
22.548	-0.480
22.551	-0.485
22.554	-0.495
22.557	-0.505
22.560	-0.500
22.563	-0.500
22.566	-0.480
22.569	-0.475
22.572	-0.485
22.575	-0.480
22.578	-0.490
22.581	-0.465
22.584	-0.455
22.587	-0.465
22.590	-0.480
22.593	-0.475
22.596	-0.475
22.599	-0.445
22.602	-0.440
22.605	-0.435
22.608	-0.450
22.611	-0.450
22.614	-0.430
22.617	-0.415
22.620	-0.410
22.623	-0.420
22.626	-0.430
22.629	-0.425
22.632	-0.405
22.635	-0.400
22.638	-0.385
22.641	-0.375
22.644	-0.365
22.647	-0.375
22.650	-0.375
22.653	-0.370
22.656	-0.340
22.659	-0.325
22.662	-0.320
22.665	-0.330
22.668	-0.310
22.671	-0.305
22.674	-0.290
22.677	-0.285
22.680	-0.285
22.683	-0.280
22.686	-0.270
22.689	-0.255
22.692	-0.230
22.695	-0.220
22.698	-0.215
22.701	-0.225
22.704	-0.225
22.707	-0.210
22.710	-0.205
22.713	-0.195
22.716	-0.200
22.719	-0.200
22.722	-0.205
22.725	-0.220
22.728	-0.200
22.731	-0.195
22.734	-0.215
22.737	-0.245
22.740	-0.245
22.743	-0.250
22.746	-0.230
22.749	-0.250
22.752	-0.260
22.755	-0.270
22.758	-0.285
22.761	-0.285
22.764	-0.275
22.767	-0.300
22.770	-0.320
22.773	-0.355
22.776	-0.350
22.779	-0.340
22.782	-0.345
22.785	-0.350
22.788	-0.355
22.791	-0.385
22.794	-0.380
22.797	-0.375
22.800	-0.375
22.803	-0.375
22.806	-0.390
22.809	-0.400
22.812	-0.385
22.815	-0.385
22.818	-0.380
22.821	-0.375
22.824	-0.405
22.827	-0.410
22.830	-0.405
22.833	-0.390
22.836	-0.385
22.839	-0.385
22.842	-0.390
22.845	-0.400
22.848	-0.405
22.851	-0.395
22.854	-0.370
22.857	-0.370
22.860	-0.375
22.863	-0.390
22.866	-0.395
22.869	-0.390
22.872	-0.380
22.875	-0.380
22.878	-0.375
22.881	-0.395
22.884	-0.380
22.887	-0.375
22.890	-0.375
22.893	-0.375
22.896	-0.385
22.899	-0.390
22.902	-0.375
22.905	-0.370
22.908	-0.355
22.911	-0.360
22.914	-0.360
22.917	-0.370
22.920	-0.370
22.923	-0.350
22.926	-0.335
22.929	-0.350
22.932	-0.355
22.935	-0.360
22.938	-0.355
22.941	-0.355
22.944	-0.345
22.947	-0.340
22.950	-0.355
22.953	-0.365
22.956	-0.370
22.959	-0.355
22.962	-0.355
22.965	-0.355
22.968	-0.375
22.971	-0.385
22.974	-0.375
22.977	-0.365
22.980	-0.365
22.983	-0.360
22.986	-0.375
22.989	-0.370
22.992	-0.370
22.995	-0.370
22.998	-0.365
23.001	-0.350
23.004	-0.365
23.007	-0.375
23.010	-0.375
23.013	-0.370
23.016	-0.360
23.019	-0.370
23.022	-0.375
23.025	-0.365
23.028	-0.360
23.031	-0.355
23.034	-0.360
23.037	-0.355
23.040	-0.365
23.043	-0.365
23.046	-0.370
23.049	-0.355
23.052	-0.360
23.055	-0.360
23.058	-0.360
23.061	-0.370
23.064	-0.360
23.067	-0.360
23.070	-0.360
23.073	-0.370
23.076	-0.375
23.079	-0.375
23.082	-0.380
23.085	-0.355
23.088	-0.365
23.091	-0.360
23.094	-0.360
23.097	-0.360
23.100	-0.370
23.103	-0.375
23.106	-0.370
23.109	-0.355
23.112	-0.365
23.115	-0.375
23.118	-0.385
23.121	-0.375
23.124	-0.375
23.127	-0.365
23.130	-0.375
23.133	-0.380
23.136	-0.370
23.139	-0.365
23.142	-0.360
23.145	-0.355
23.148	-0.360
23.151	-0.370
23.154	-0.365
23.157	-0.360
23.160	-0.345
23.163	-0.345
23.166	-0.345
23.169	-0.355
23.172	-0.345
23.175	-0.330
23.178	-0.330
23.181	-0.325
23.184	-0.310
23.187	-0.295
23.190	-0.245
23.193	-0.200
23.196	-0.185
23.199	-0.175
23.202	-0.190
23.205	-0.215
23.208	-0.210
23.211	-0.195
23.214	-0.205
23.217	-0.230
23.220	-0.245
23.223	-0.245
23.226	-0.250
23.229	-0.245
23.232	-0.240
23.235	-0.250
23.238	-0.270
23.241	-0.295
23.244	-0.320
23.247	-0.330
23.250	-0.335
23.253	-0.335
23.256	-0.345
23.259	-0.365
23.262	-0.365
23.265	-0.350
23.268	-0.355
23.271	-0.360
23.274	-0.370
23.277	-0.380
23.280	-0.385
23.283	-0.380
23.286	-0.385
23.289	-0.375
23.292	-0.385
23.295	-0.390
23.298	-0.395
23.301	-0.390
23.304	-0.380
23.307	-0.380
23.310	-0.395
23.313	-0.415
23.316	-0.390
23.319	-0.390
23.322	-0.405
23.325	-0.425
23.328	-0.460
23.331	-0.475
23.334	-0.445
23.337	-0.350
23.340	-0.195
23.343	-0.010
23.346	0.210
23.349	0.495
23.352	0.805
23.355	0.990
23.358	0.900
23.361	0.615
23.364	0.330
23.367	0.095
23.370	-0.040
23.373	-0.090
23.376	-0.090
23.379	-0.125
23.382	-0.165
23.385	-0.190
23.388	-0.230
23.391	-0.260
23.394	-0.295
23.397	-0.365
23.400	-0.405
23.403	-0.425
23.406	-0.435
23.409	-0.450
23.412	-0.455
23.415	-0.460
23.418	-0.465
23.421	-0.480
23.424	-0.495
23.427	-0.495
23.430	-0.485
23.433	-0.485
23.436	-0.495
23.439	-0.500
23.442	-0.505
23.445	-0.495
23.448	-0.490
23.451	-0.480
23.454	-0.485
23.457	-0.495
23.460	-0.510
23.463	-0.495
23.466	-0.495
23.469	-0.490
23.472	-0.500
23.475	-0.505
23.478	-0.505
23.481	-0.490
23.484	-0.500
23.487	-0.505
23.490	-0.495
23.493	-0.500
23.496	-0.500
23.499	-0.490
23.502	-0.480
23.505	-0.475
23.508	-0.485
23.511	-0.495
23.514	-0.490
23.517	-0.490
23.520	-0.490
23.523	-0.490
23.526	-0.505
23.529	-0.500
23.532	-0.500
23.535	-0.495
23.538	-0.485
23.541	-0.475
23.544	-0.475
23.547	-0.495
23.550	-0.490
23.553	-0.470
23.556	-0.465
23.559	-0.455
23.562	-0.475
23.565	-0.470
23.568	-0.465
23.571	-0.450
23.574	-0.435
23.577	-0.430
23.580	-0.440
23.583	-0.455
23.586	-0.440
23.589	-0.425
23.592	-0.415
23.595	-0.420
23.598	-0.430
23.601	-0.410
23.604	-0.395
23.607	-0.385
23.610	-0.360
23.613	-0.370
23.616	-0.365
23.619	-0.375
23.622	-0.350
23.625	-0.345
23.628	-0.320
23.631	-0.310
23.634	-0.300
23.637	-0.305
23.640	-0.305
23.643	-0.280
23.646	-0.270
23.649	-0.260
23.652	-0.265
23.655	-0.260
23.658	-0.260
23.661	-0.245
23.664	-0.225
23.667	-0.215
23.670	-0.215
23.673	-0.215
23.676	-0.220
23.679	-0.210
23.682	-0.200
23.685	-0.195
23.688	-0.215
23.691	-0.215
23.694	-0.215
23.697	-0.225
23.700	-0.220
23.703	-0.235
23.706	-0.245
23.709	-0.250
23.712	-0.260
23.715	-0.275
23.718	-0.280
23.721	-0.280
23.724	-0.300
23.727	-0.310
23.730	-0.320
23.733	-0.315
23.736	-0.330
23.739	-0.340
23.742	-0.350
23.745	-0.365
23.748	-0.350
23.751	-0.385
23.754	-0.360
23.757	-0.370
23.760	-0.380
23.763	-0.375
23.766	-0.390
23.769	-0.380
23.772	-0.390
23.775	-0.390
23.778	-0.390
23.781	-0.400
23.784	-0.395
23.787	-0.400
23.790	-0.385
23.793	-0.395
23.796	-0.390
23.799	-0.400
23.802	-0.395
23.805	-0.385
23.808	-0.370
23.811	-0.380
23.814	-0.395
23.817	-0.400
23.820	-0.395
23.823	-0.375
23.826	-0.375
23.829	-0.375
23.832	-0.385
23.835	-0.395
23.838	-0.385
23.841	-0.380
23.844	-0.370
23.847	-0.385
23.850	-0.395
23.853	-0.395
23.856	-0.390
23.859	-0.385
23.862	-0.355
23.865	-0.360
23.868	-0.360
23.871	-0.380
23.874	-0.390
23.877	-0.380
23.880	-0.365
23.883	-0.365
23.886	-0.375
23.889	-0.385
23.892	-0.390
23.895	-0.375
23.898	-0.360
23.901	-0.360
23.904	-0.375
23.907	-0.375
23.910	-0.370
23.913	-0.370
23.916	-0.370
23.919	-0.390
23.922	-0.385
23.925	-0.385
23.928	-0.380
23.931	-0.365
23.934	-0.355
23.937	-0.360
23.940	-0.375
23.943	-0.375
23.946	-0.375
23.949	-0.370
23.952	-0.360
23.955	-0.370
23.958	-0.370
23.961	-0.380
23.964	-0.380
23.967	-0.370
23.970	-0.345
23.973	-0.370
23.976	-0.365
23.979	-0.375
23.982	-0.365
23.985	-0.365
23.988	-0.360
23.991	-0.370
23.994	-0.370
23.997	-0.370
24.000	-0.370
24.003	-0.370
24.006	-0.355
24.009	-0.350
24.012	-0.365
24.015	-0.380
24.018	-0.370
24.021	-0.355
24.024	-0.345
24.027	-0.360
24.030	-0.365
24.033	-0.380
24.036	-0.385
24.039	-0.375
24.042	-0.360
24.045	-0.360
24.048	-0.360
24.051	-0.370
24.054	-0.375
24.057	-0.370
24.060	-0.355
24.063	-0.355
24.066	-0.355
24.069	-0.375
24.072	-0.380
24.075	-0.360
24.078	-0.350
24.081	-0.360
24.084	-0.370
24.087	-0.375
24.090	-0.385
24.093	-0.365
24.096	-0.350
24.099	-0.350
24.102	-0.350
24.105	-0.365
24.108	-0.380
24.111	-0.365
24.114	-0.355
24.117	-0.340
24.120	-0.345
24.123	-0.345
24.126	-0.350
24.129	-0.335
24.132	-0.325
24.135	-0.315
24.138	-0.325
24.141	-0.335
24.144	-0.320
24.147	-0.290
24.150	-0.240
24.153	-0.205
24.156	-0.185
24.159	-0.195
24.162	-0.210
24.165	-0.225
24.168	-0.195
24.171	-0.215
24.174	-0.240
24.177	-0.250
24.180	-0.260
24.183	-0.245
24.186	-0.240
24.189	-0.265
24.192	-0.290
24.195	-0.300
24.198	-0.310
24.201	-0.300
24.204	-0.305
24.207	-0.350
24.210	-0.370
24.213	-0.385
24.216	-0.385
24.219	-0.385
24.222	-0.385
24.225	-0.400
24.228	-0.410
24.231	-0.405
24.234	-0.405
24.237	-0.405
24.240	-0.395
24.243	-0.410
24.246	-0.425
24.249	-0.425
24.252	-0.445
24.255	-0.430
24.258	-0.420
24.261	-0.450
24.264	-0.445
24.267	-0.440
24.270	-0.440
24.273	-0.430
24.276	-0.425
24.279	-0.435
24.282	-0.450
24.285	-0.470
24.288	-0.500
24.291	-0.505
24.294	-0.485
24.297	-0.425
24.300	-0.285
24.303	-0.080
24.306	0.160
24.309	0.480
24.312	0.780
24.315	0.900
24.318	0.775
24.321	0.460
24.324	0.190
24.327	-0.045
24.330	-0.175
24.333	-0.240
24.336	-0.275
24.339	-0.325
24.342	-0.320
24.345	-0.315
24.348	-0.330
24.351	-0.380
24.354	-0.410
24.357	-0.460
24.360	-0.490
24.363	-0.505
24.366	-0.500
24.369	-0.500
24.372	-0.500
24.375	-0.510
24.378	-0.515
24.381	-0.520
24.384	-0.520
24.387	-0.530
24.390	-0.545
24.393	-0.545
24.396	-0.540
24.399	-0.535
24.402	-0.525
24.405	-0.515
24.408	-0.520
24.411	-0.535
24.414	-0.545
24.417	-0.535
24.420	-0.520
24.423	-0.530
24.426	-0.535
24.429	-0.540
24.432	-0.535
24.435	-0.520
24.438	-0.515
24.441	-0.540
24.444	-0.530
24.447	-0.545
24.450	-0.545
24.453	-0.530
24.456	-0.505
24.459	-0.520
24.462	-0.550
24.465	-0.555
24.468	-0.530
24.471	-0.510
24.474	-0.505
24.477	-0.520
24.480	-0.525
24.483	-0.520
24.486	-0.510
24.489	-0.510
24.492	-0.515
24.495	-0.510
24.498	-0.520
24.501	-0.520
24.504	-0.515
24.507	-0.505
24.510	-0.490
24.513	-0.485
24.516	-0.495
24.519	-0.500
24.522	-0.505
24.525	-0.490
24.528	-0.480
24.531	-0.485
24.534	-0.495
24.537	-0.480
24.540	-0.480
24.543	-0.470
24.546	-0.455
24.549	-0.440
24.552	-0.450
24.555	-0.455
24.558	-0.455
24.561	-0.435
24.564	-0.405
24.567	-0.410
24.570	-0.410
24.573	-0.405
24.576	-0.395
24.579	-0.385
24.582	-0.365
24.585	-0.370
24.588	-0.365
24.591	-0.360
24.594	-0.355
24.597	-0.335
24.600	-0.315
24.603	-0.315
24.606	-0.320
24.609	-0.320
24.612	-0.320
24.615	-0.285
24.618	-0.265
24.621	-0.265
24.624	-0.275
24.627	-0.270
24.630	-0.260
24.633	-0.250
24.636	-0.235
24.639	-0.255
24.642	-0.255
24.645	-0.260
24.648	-0.265
24.651	-0.270
24.654	-0.255
24.657	-0.280
24.660	-0.265
24.663	-0.275
24.666	-0.300
24.669	-0.310
24.672	-0.310
24.675	-0.310
24.678	-0.315
24.681	-0.335
24.684	-0.350
24.687	-0.360
24.690	-0.350
24.693	-0.365
24.696	-0.370
24.699	-0.380
24.702	-0.390
24.705	-0.395
24.708	-0.400
24.711	-0.410
24.714	-0.420
